0.0, -1.4577847676528919
0.001666944490748458, -1.78914528929689
0.003333888981496916, -14.971357947835367
0.005000833472245374, 35.14749604974485
0.006667777962993832, 4.710220063787807
0.00833472245374229, 4.365384472260359
0.010001666944490749, -11.922224230780063
0.011668611435239206, -18.92118371329996
0.013335555925987664, 1.1810900834983542
0.015002500416736122, -2.028548769291233
0.01666944490748458, 15.513535169895476
0.01833638939823304, 2.410770299155044
0.020003333888981498, 12.743970815843982
0.021670278379729953, 8.723770751861585
0.023337222870478413, -17.530149141660765
0.02500416736122687, -11.608009194492018
0.026671111851975328, -9.91896665301672
0.028338056342723787, -4.866192636219835
0.030005000833472243, -1.2814758092914342
0.0316719453242207, 0.9182044679824535
0.03333888981496916, 21.278106466493263
0.03500583430571762, 23.947995004694484
0.03667277879646608, -1.5584598724335972
0.038339723287214536, -13.389020626575913
0.040006667777962995, 15.747458949569225
0.04167361226871145, 5.386269701339839
0.04334055675945991, -14.292098609924587
0.045007501250208366, 16.711468060807203
0.046674445740956826, 2.949903923310565
0.048341390231705285, -23.15188313014976
0.05000833472245374, -13.671088231627415
0.051675279213202197, 1.8066761375219071
0.053342223703950656, -9.04229767174921
0.055009168194699115, -15.632251806308789
0.056676112685447574, 4.141400332942499
0.05834305717619603, 17.182093899740945
0.060010001666944486, 4.254977433538585
0.061676946157692945, -14.097379912808801
0.0633438906484414, -4.386169925814928
0.06501083513918986, -2.7024337122868776
0.06667777962993832, 3.3857568407159846
0.06834472412068678, 2.3023628280292066
0.07001166861143523, 6.5768703296830875
0.0716786131021837, 13.993289384723541
0.07334555759293215, -15.912038944553599
0.07501250208368061, 0.5096369804577954
0.07667944657442907, 21.794536379157844
0.07834639106517753, -8.01774112762265
0.08001333555592599, -9.403498794502765
0.08168028004667444, 6.504196247336539
0.0833472245374229, 1.4289708725534678
0.08501416902817135, -7.872641171850955
0.08668111351891981, -0.7371736787605694
0.08834805800966827, 11.859535347317632
0.09001500250041673, 1.1074874099064957
0.09168194699116519, 1.6642605044790497
0.09334889148191365, 8.004054945121075
0.09501583597266211, -8.523627994871177
0.09668278046341057, 0.002144574900594165
0.09834972495415902, 10.22990403827798
0.10001666944490747, -9.866720749823868
0.10168361393565593, -9.119347579738417
0.10335055842640439, 2.395748958840518
0.10501750291715285, 0.4171303208752244
0.10668444740790131, 0.7476359553132101
0.10835139189864977, -3.1326142467633646
0.11001833638939823, 1.1036214440331067
0.11168528088014669, 7.298291279185376
0.11335222537089515, -2.6549325823530467
0.11501916986164361, -10.202570824839587
0.11668611435239205, -2.652654935899511
0.11835305884314051, 5.442052151331516
0.12002000333388897, 0.012949951036239415
0.12168694782463743, -2.730527846574436
0.12335389231538589, 0.29699379016944205
0.12502083680613435, 1.2590420997124443
0.1266877812968828, 4.2188855698616
0.12835472578763127, 1.3280293728195487
0.13002167027837971, -0.1386749151782517
0.1316886147691282, 1.3381086517430958
0.13335555925987663, -2.6400751992314246
0.1350225037506251, 3.111766405799723
0.13668944824137355, 2.8798935402463455
0.13835639273212202, 5.466063791448384
0.14002333722287047, -2.428443576330643
0.14169028171361894, -18.7322754032321
0.1433572262043674, -0.4896702961158663
0.14502417069511583, 1.4908389184102226
0.1466911151858643, -1.3476133589607693
0.14835805967661275, 6.238966180058647
0.15002500416736123, 2.84132300037432
0.15169194865810967, 3.7100458078625866
0.15335889314885814, 1.8663381817849967
0.1550258376396066, 0.1250498456052238
0.15669278213035506, -0.4636359352036533
0.1583597266211035, -2.340026987711437
0.16002667111185198, -1.2637422765241253
0.16169361560260043, 0.40411376803206156
0.16336056009334887, -1.546756145948402
0.16502750458409735, 2.348467038580904
0.1666944490748458, 1.7739016779869914
0.16836139356559426, -0.5976389346815058
0.1700283380563427, 1.8546097918388083
0.17169528254709118, -1.5669382452897653
0.17336222703783963, -2.125254989246449
0.1750291715285881, -1.6858125012788876
0.17669611601933655, -1.0096016901085267
0.178363060510085, -2.035570032344405
0.18003000500083347, -4.695812518517462
0.1816969494915819, -0.6334252969182504
0.18336389398233038, 0.8546893096243843
0.18503083847307883, -1.4313954276580114
0.1866977829638273, 3.6208518376607666
0.18836472745457575, 1.6716627891455353
0.19003167194532422, -0.4616029269923614
0.19169861643607267, 2.8059884028515487
0.19336556092682114, -2.472612427110098
0.19503250541756958, -3.901788232702693
0.19669944990831803, -1.476909500932692
0.1983663943990665, 0.6424575306368044
0.20003333888981495, 1.4958371724005688
0.20170028338056342, 1.4877590987739917
0.20336722787131187, 1.452594823834333
0.20503417236206034, 1.6428041784807854
0.20670111685280879, 2.424836078046354
0.20836806134355726, 0.09000601271891157
0.2100350058343057, 0.45229838345812534
0.21170195032505418, 1.7993884426669762
0.21336889481580262, 0.5712201258108099
0.21503583930655107, -0.2644232242598977
0.21670278379729954, 1.8113538567566219
0.218369728288048, -0.14356887169852223
0.22003667277879646, -1.799414431677012
0.2217036172695449, 1.106725215749969
0.22337056176029338, -1.22807258510041
0.22503750625104182, 0.4137343282706234
0.2267044507417903, 2.564595973831759
0.22837139523253874, 0.6934947117454022
0.23003833972328722, -2.388373164526684
0.23170528421403566, 2.8717338196762867
0.2333722287047841, 7.915269511989375
0.23503917319553258, -6.08779165439823
0.23670611768628103, -11.577350014160757
0.2383730621770295, -6.163667369494732
0.24004000666777794, -2.9812730586064182
0.24170695115852642, 0.7192198475857756
0.24337389564927486, 5.5459295980363965
0.24504084014002334, 4.6602555648891295
0.24670778463077178, 3.8446575954167033
0.24837472912152025, 5.739841305076837
0.2500416736122687, 1.799726799296372
0.25170861810301715, 1.9785694387997037
0.2533755625937656, -0.6239056794187725
0.2550425070845141, -2.684696344869005
0.25670945157526254, -1.3710954723185822
0.258376396066011, 8.615356806421541
0.26004334055675943, 15.682810318941634
0.26171028504750793, -1.294066368959694
0.2633772295382564, -12.308847945202793
0.2650441740290048, -5.578118638553793
0.26671111851975327, 0.794916346689164
0.2683780630105017, -3.357636558174672
0.2700450075012502, -4.903833148808856
0.27171195199199866, 3.310306411118648
0.2733788964827471, -3.3531994296997785
0.27504584097349555, -18.561158410012837
0.27671278546424405, -9.554409367996449
0.2783797299549925, 0.1114459720892409
0.28004667444574094, -9.561521424596728
0.2817136189364894, 0.47869307563173313
0.2833805634272379, 3.520029298783638
0.28504750791798633, -5.246084487939358
0.2867144524087348, 3.534546644823124
0.2883813968994832, -4.794821008424052
0.29004834139023167, 2.28825924600455
0.29171528588098017, 9.122781020831262
0.2933822303717286, 10.598403082162415
0.29504917486247706, 10.742773493264833
0.2967161193532255, -4.61866951262687
0.298383063843974, 17.15030144955997
0.30005000833472245, 15.731105835734173
0.3017169528254709, -3.771972653670578
0.30338389731621934, -10.077769818678401
0.3050508418069678, -8.2989106795414
0.3067177862977163, -8.686172454319301
0.30838473078846473, -7.733316138325881
0.3100516752792132, 10.19958592452826
0.3117186197699616, 1.7407456814300666
0.3133855642607101, 4.682372117660901
0.31505250875145857, 4.142772112493415
0.316719453242207, 2.642422278203517
0.31838639773295546, -3.3312621820321358
0.32005334222370396, 2.8223568722976538
0.3217202867144524, 19.560830925244662
0.32338723120520085, -2.012828473767941
0.3250541756959493, -2.055347741594611
0.32672112018669774, -11.931496959316782
0.32838806467744625, -5.268372628506063
0.3300550091681947, 2.2035685918053445
0.33172195365894314, -8.348493810196697
0.3333888981496916, -4.358216863809472
0.3350558426404401, -5.6031991708453806
0.33672278713118853, 5.579278023673522
0.338389731621937, 4.78809988306457
0.3400566761126854, 5.02547564340597
0.34172362060343386, -10.139317518441334
0.34339056509418237, 0.7816724459619142
0.3450575095849308, 3.8214543056527424
0.34672445407567926, -13.451623363598982
0.3483913985664277, 3.895539704833848
0.3500583430571762, -1.8935640211546128
0.35172528754792465, 10.148723529389587
0.3533922320386731, 8.464896635229572
0.35505917652942154, -1.603378751956615
0.35672612102017, 0.8819008542761346
0.3583930655109185, -4.7418456518063685
0.36006001000166693, -3.2521447330866247
0.3617269544924154, -6.68162961906177
0.3633938989831638, -6.599923243665027
0.3650608434739123, -2.6857623560538855
0.36672778796466077, -1.0441645893986327
0.3683947324554092, -1.7323187096449342
0.37006167694615766, 21.2231170080099
0.37172862143690616, 11.5230891185154
0.3733955659276546, -19.28261894937976
0.37506251041840305, -18.32527470629325
0.3767294549091515, 7.78368157874292
0.37839639939989994, 17.403106040079734
0.38006334389064844, 5.785184356543672
0.3817302883813969, 16.277492496159972
0.38339723287214533, -5.711329060898245
0.3850641773628938, -26.401678659658035
0.3867311218536423, -2.8222514145663125
0.3883980663443907, 11.33572038354442
0.39006501083513917, -5.341729083110249
0.3917319553258876, 0.17508531068506072
0.39339889981663606, 2.1679479270549002
0.39506584430738456, 2.640846462270775
0.396732788798133, 23.22942337952358
0.39839973328888145, -10.74855426757791
0.4000666777796299, -18.697740076476315
0.4017336222703784, 5.642003488568093
0.40340056676112684, 1.6984428934552256
0.4050675112518753, -2.397228046062385
0.40673445574262374, -7.414256582143032
0.40840140023337224, 0.04380576001740821
0.4100683447241207, 5.038786811498776
0.4117352892148691, -8.059558715343332
0.41340223370561757, -1.9135525642744151
0.415069178196366, 10.295596957966726
0.4167361226871145, -2.2623563618823024
0.41840306717786296, 7.124037900313024
0.4200700116686114, 12.985088414006494
0.42173695615935985, -13.53995762567416
0.42340390065010836, -21.215195825097886
0.4250708451408568, 11.386620430769845
0.42673778963160525, 31.023182260305255
0.4284047341223537, -12.937506208565786
0.43007167861310214, -15.495588660604506
0.43173862310385064, 13.712170149686226
0.4334055675945991, -6.0138384529129585
0.43507251208534753, -10.43368575986673
0.436739456576096, 6.255296405136203
0.4384064010668445, 5.782535046228996
0.4400733455575929, -3.802091150150005
0.44174029004834137, 2.3955609183130853
0.4434072345390898, 3.824242399287207
0.44507417902983826, -4.680774367928547
0.44674112352058676, -5.756964443388758
0.4484080680113352, 6.393294761720461
0.45007501250208365, 4.60009247001795
0.4517419569928321, -6.545412817761436
0.4534089014835806, 9.007132466473072
0.45507584597432904, -1.5991250640240295
0.4567427904650775, -10.503666820313743
0.45840973495582593, 4.212169766270142
0.46007667944657443, 9.029196261700724
0.4617436239373229, -1.0844988754676859
0.4634105684280713, -12.447432081142994
0.46507751291881977, 6.5223207562673755
0.4667444574095682, 3.0561271112686823
0.4684114019003167, -3.0096030943674044
0.47007834639106516, 7.5847942046032415
0.4717452908818136, -3.7587455775738565
0.47341223537256205, -12.802996673256173
0.47507917986331055, -2.7817735859207717
0.476746124354059, 8.903802678386436
0.47841306884480744, -5.0611721630833735
0.4800800133355559, -4.364572682033549
0.48174695782630433, 0.5035050014560885
0.48341390231705283, -3.7408268641895592
0.4850808468078013, 4.053192886794582
0.4867477912985497, 1.6393163628406628
0.48841473578929817, 5.701087952936995
0.49008168028004667, 3.7009733371335303
0.4917486247707951, -5.517508846531502
0.49341556926154356, -4.54189333147631
0.495082513752292, -1.6503108481004327
0.4967494582430405, 1.996534097028519
0.49841640273378895, 5.204214475269121
0.5000833472245374, 3.431287157627262
0.5017502917152858, 4.942561013758047
0.5034172362060343, 7.861402916745513
0.5050841806967827, -3.5041614491493513
0.5067511251875312, -3.6615840338644325
0.5084180696782797, -4.150823012828857
0.5100850141690282, -6.1390722680185625
0.5117519586597766, 3.032323880190306
0.5134189031505251, -1.6036190887831172
0.5150858476412735, 0.0906672541742346
0.516752792132022, 5.910464758558634
0.5184197366227704, 1.0622080509525507
0.5200866811135189, -5.620180872131678
0.5217536256042673, -6.023637738857403
0.5234205700950159, -0.215513755390871
0.5250875145857643, -1.1337178093623699
0.5267544590765127, 5.096131771341398
0.5284214035672612, 8.776345276772897
0.5300883480580096, 1.2778872222909516
0.5317552925487581, 1.754847302980002
0.5334222370395065, 0.29805967759812946
0.535089181530255, -4.162540237068867
0.5367561260210034, -3.8536497111766947
0.538423070511752, -2.9652291733695164
0.5400900150025004, -0.15842086237413813
0.5417569594932489, 1.3296689969904312
0.5434239039839973, -1.569425905052487
0.5450908484747458, -0.31851303255626584
0.5467577929654942, 1.981827251660816
0.5484247374562427, -0.9654267956562667
0.5500916819469911, -1.4253049869104037
0.5517586264377395, 2.330983988395344
0.5534255709284881, 1.28510449184607
0.5550925154192365, -0.474820489020164
0.556759459909985, 0.17072481467183626
0.5584264044007334, -2.4025766615671236
0.5600933488914819, 0.2591426284277587
0.5617602933822303, 2.561895993544061
0.5634272378729788, -1.4565258793066382
0.5650941823637272, -2.5345065302609964
0.5667611268544758, -2.0123764037779397
0.5684280713452242, -0.6219045044590392
0.5700950158359727, 0.5374809734065699
0.5717619603267211, 0.37953948698959694
0.5734289048174696, 2.1334028114303396
0.575095849308218, -0.454176402720907
0.5767627937989664, -1.276007525711705
0.5784297382897149, -1.0669367265922043
0.5800966827804633, -2.717658778090059
0.5817636272712119, 1.5604407058017193
0.5834305717619603, 1.8198628515086415
0.5850975162527088, 2.400869371540028
0.5867644607434572, 0.38670869246199957
0.5884314052342057, 1.39010314019083
0.5900983497249541, 2.0517253680051777
0.5917652942157026, -2.5450484029067315
0.593432238706451, 3.8693615619872417
0.5950991831971995, -1.4545207746994195
0.596766127687948, 2.8542361942198284
0.5984330721786965, 12.649214107932051
0.6001000166694449, -5.0190574975612385
0.6017669611601933, -4.220076165376779
0.6034339056509418, 4.2031278693600385
0.6051008501416902, -5.0412204857084415
0.6067677946324387, -5.5312958315813745
0.6084347391231871, -0.7929655761486278
0.6101016836139356, -0.2768207443112125
0.6117686281046841, -3.4546984779100143
0.6134355725954326, -0.08565809829785953
0.615102517086181, 0.9850481843146914
0.6167694615769295, -4.992645981696244
0.6184364060676779, -0.4887554942826579
0.6201033505584264, 4.003632796923607
0.6217702950491748, 3.0680756202509647
0.6234372395399232, 2.9492156331771495
0.6251041840306717, 4.561314665298814
0.6267711285214203, -0.07751251186120163
0.6284380730121687, 2.8822481666864723
0.6301050175029171, 6.002103369079903
0.6317719619936656, -3.0529734432528826
0.633438906484414, -1.7738832190426357
0.6351058509751625, -3.264343844059842
0.6367727954659109, -5.437856193955835
0.6384397399566594, -5.691045236515538
0.6401066844474079, -8.09224510894364
0.6417736289381564, -0.20871512249865298
0.6434405734289048, 8.123065946334053
0.6451075179196533, -0.6730931090390269
0.6467744624104017, -2.919108602748558
0.6484414069011502, 3.027038214143401
0.6501083513918986, -3.2822855922572653
0.651775295882647, -1.0763100543143587
0.6534422403733955, 0.06863693347435729
0.655109184864144, -2.0509991735365376
0.6567761293548925, -0.732801401404523
0.6584430738456409, 5.955878255715128
0.6601100183363894, -1.4976826948863267
0.6617769628271378, -3.2231680162570955
0.6634439073178863, 9.94716226067671
0.6651108518086347, -7.704152310334915
0.6667777962993832, 5.693851921225168
0.6684447407901316, 13.494001659003889
0.6701116852808802, -8.267104966202016
0.6717786297716286, 7.4402380693005306
0.6734455742623771, -5.015025155341436
0.6751125187531255, -9.753045886176956
0.676779463243874, 11.34258107142642
0.6784464077346224, -5.959611744882095
0.6801133522253708, -8.315449309953035
0.6817802967161193, -0.04565934620392986
0.6834472412068677, 9.885326724617745
0.6851141856976163, 1.1075886463219535
0.6867811301883647, -5.14420199982695
0.6884480746791132, 18.549642442222833
0.6901150191698616, -5.400211884809526
0.6917819636606101, 0.22039610313719038
0.6934489081513585, -8.77775367021814
0.695115852642107, -17.012170156767255
0.6967827971328554, 27.846273893887943
0.6984497416236038, -2.23480730396866
0.7001166861143524, -6.50990765859669
0.7017836306051008, -6.391351570938862
0.7034505750958493, -1.9724998649777405
0.7051175195865977, 12.683274216997203
0.7067844640773462, -10.70436325902434
0.7084514085680946, 10.105193766086517
0.7101183530588431, -8.731144476677542
0.7117852975495915, -8.206069339087282
0.71345224204034, 14.146688985996864
0.7151191865310885, -5.5340293268660075
0.716786131021837, -11.722644460192251
0.7184530755125854, 2.7796219844898484
0.7201200200033339, 17.971984111850773
0.7217869644940823, 1.5299493261945072
0.7234539089848308, -6.6702998733845575
0.7251208534755792, -10.220431543549534
0.7267877979663276, -1.8342595363909435
0.7284547424570762, -6.138159295888106
0.7301216869478246, 2.0763955102966527
0.7317886314385731, 8.251801762311231
0.7334555759293215, -10.383553634834543
0.73512252042007, 1.3579819505924213
0.7367894649108184, -5.4905411285151215
0.7384564094015669, 4.334974851764427
0.7401233538923153, 4.782795841377242
0.7417902983830638, 3.0168128054971675
0.7434572428738123, 8.753756110110183
0.7451241873645608, -3.9961539471247276
0.7467911318553092, -3.118116717963728
0.7484580763460577, -10.1555923476558
0.7501250208368061, 1.5773470973921686
0.7517919653275545, 6.2085921683639755
0.753458909818303, -3.9376304480366855
0.7551258543090514, 12.978426441353424
0.7567927987997999, 33.33156617923399
0.7584597432905484, -4.760160491641953
0.7601266877812969, -26.799946636972102
0.7617936322720453, 8.20498878098104
0.7634605767627938, 0.4005470107799143
0.7651275212535422, -1.8893576651475295
0.7667944657442907, 7.6779070101886315
0.7684614102350391, -8.853791058888138
0.7701283547257876, -5.165660877519892
0.771795299216536, 7.4392180971514525
0.7734622437072846, -8.276250636365099
0.775129188198033, -13.92481744653466
0.7767961326887814, 7.231661189115341
0.7784630771795299, 2.1143288171200076
0.7801300216702783, 4.271382023459365
0.7817969661610268, 1.5821865222978375
0.7834639106517752, -6.187621770841691
0.7851308551425237, 7.426900919483476
0.7867977996332721, -5.066719368249404
0.7884647441240207, -6.529404901482721
0.7901316886147691, -8.146753601065587
0.7917986331055176, -4.5894880996081024
0.793465577596266, 4.891838516696643
0.7951325220870145, 1.8984222695025563
0.7967994665777629, 15.359962727147485
0.7984664110685114, 1.6641407875114886
0.8001333555592598, -13.560368646920347
0.8018003000500082, 1.61583094585151
0.8034672445407568, 9.114102737554958
0.8051341890315052, 2.873882938843887
0.8068011335222537, -2.8322361926560764
0.8084680780130021, -5.259274359803228
0.8101350225037506, 4.240047172359581
0.811801966994499, -1.3738032636050264
0.8134689114852475, -14.083897507940332
0.8151358559759959, -3.057055599950055
0.8168028004667445, 11.83884664360519
0.8184697449574929, 15.992736985749621
0.8201366894482414, 3.814078625557969
0.8218036339389898, -4.122493503432915
0.8234705784297383, -5.125763998834356
0.8251375229204867, -8.535272436065675
0.8268044674112351, -9.72014146765446
0.8284714119019836, 5.418168423313387
0.830138356392732, 0.4567700434515114
0.8318053008834806, -1.7115421245854217
0.833472245374229, 14.881530223263148
0.8351391898649775, -8.357352087936006
0.8368061343557259, -13.053643598279297
0.8384730788464744, 13.190955175026563
0.8401400233372228, 3.8516017427974614
0.8418069678279713, -3.134639050981539
0.8434739123187197, 11.558867590852891
0.8451408568094682, -5.166326776535036
0.8468078013002167, -8.191873310861544
0.8484747457909652, 0.450438845440689
0.8501416902817136, 5.1988149141514945
0.851808634772462, 3.1449779931760435
0.8534755792632105, -4.673953860966729
0.8551425237539589, 10.273204387750255
0.8568094682447074, -4.076250207146223
0.8584764127354558, -9.001690057903112
0.8601433572262043, -5.055961753064816
0.8618103017169528, -4.737734885459415
0.8634772462077013, 0.5328271002388532
0.8651441906984497, -1.1430144739468142
0.8668111351891982, 9.926325098806052
0.8684780796799466, -1.4578383456771702
0.8701450241706951, 4.338372853295953
0.8718119686614435, 16.137434054550553
0.873478913152192, -7.101056200091188
0.8751458576429404, -8.44830597135568
0.876812802133689, 3.652793434193929
0.8784797466244374, -1.2334897336745005
0.8801466911151858, -6.415190408210252
0.8818136356059343, -1.1897798008078437
0.8834805800966827, 4.6441808720294295
0.8851475245874312, 1.7363610644494154
0.8868144690781796, 4.766141148223934
0.8884814135689281, 3.6011978826873063
0.8901483580596765, -6.1034112785431685
0.8918153025504251, -5.560958437014192
0.8934822470411735, -5.984989555639114
0.895149191531922, -1.7543184724816365
0.8968161360226704, -0.8588229494559985
0.8984830805134189, 0.9851663192281865
0.9001500250041673, 6.314289355728971
0.9018169694949157, 2.622817275427908
0.9034839139856642, 0.5526047599845838
0.9051508584764127, -2.8340358559961616
0.9068178029671612, -1.1806549620554319
0.9084847474579096, -4.315715522964109
0.9101516919486581, -1.9798859260057202
0.9118186364394065, 1.2919779901673332
0.913485580930155, 4.039161056876164
0.9151525254209034, 11.096514278001141
0.9168194699116519, 0.7977106099971831
0.9184864144024003, 0.14136172682078918
0.9201533588931489, -2.70014706453338
0.9218203033838973, -6.621156476271985
0.9234872478746458, -1.3647175836593606
0.9251541923653942, 0.691616644015042
0.9268211368561426, 0.9370283252050173
0.9284880813468911, -3.0523287529856677
0.9301550258376395, -0.6776937194059892
0.931821970328388, -1.9457396779550167
0.9334889148191364, -0.14945501154904553
0.935155859309885, -0.01728649126198656
0.9368228038006334, -0.48279168326119987
0.9384897482913819, 2.7565716431489387
0.9401566927821303, -0.7203411795972037
0.9418236372728788, 3.4172439626275333
0.9434905817636272, 3.0928996369250443
0.9451575262543757, 0.9934768881469651
0.9468244707451241, 1.929925584435869
0.9484914152358725, 1.4939717004117652
0.9501583597266211, 0.7770741056868475
0.9518253042173695, -1.0781512818614694
0.953492248708118, 1.6152899893914219
0.9551591931988664, -2.7062064748716437
0.9568261376896149, -2.5933836012635614
0.9584930821803633, 1.6462446376816282
0.9601600266711118, 0.09869036378225904
0.9618269711618602, 1.0228041224105329
0.9634939156526087, -0.3550435074492784
0.9651608601433572, -0.5474965599474823
0.9668278046341057, 1.02589351731581
0.9684947491248541, 1.9348215373514737
0.9701616936156026, -0.7422312481811936
0.971828638106351, -1.560205448720114
0.9734955825970995, 2.3863283327657356
0.9751625270878479, 0.920602249669525
0.9768294715785963, 1.4716039264987355
0.9784964160693448, 3.330362898358981
0.9801633605600933, -4.427709590179338
0.9818303050508418, -9.364018575581852
0.9834972495415902, -7.265924391425415
0.9851641940323387, -7.172535587270513
0.9868311385230871, -4.018382093179569
0.9884980830138356, -1.0771199631246584
0.990165027504584, -2.684627527352993
0.9918319719953325, -2.0336784964716275
0.993498916486081, 3.716016775221816
0.9951658609768295, 4.017721995388343
0.9968328054675779, 1.1553246872081422
0.9984997499583264, 5.138120513787364
1.0001666944490748, 2.6084530784944047
1.0018336389398232, -0.6233621368229623
1.0035005834305717, 3.0613656198998136
1.0051675279213201, 2.764838972219532
1.0068344724120686, 3.510442521539133
1.008501416902817, 5.317993049058862
1.0101683613935655, 0.9585931138118342
1.011835305884314, 0.037238274829618945
1.0135022503750624, 5.413500169046983
1.0151691948658108, 1.9093475910086541
1.0168361393565595, -1.110943841366479
1.018503083847308, 2.9044765618266806
1.0201700283380564, -1.5910367917909845
1.0218369728288048, -4.0262850917417
1.0235039173195533, 1.0090561361797579
1.0251708618103017, 2.0513546943542673
1.0268378063010501, 0.7330179622902612
1.0285047507917986, -0.9347649674749494
1.030171695282547, -3.378822287890949
1.0318386397732955, -2.0477124387801235
1.033505584264044, -2.303571533055639
1.0351725287547924, -0.3246183951159407
1.0368394732455408, 4.950072616341293
1.0385064177362893, 0.23850456143467325
1.0401733622270377, -4.668222231047065
1.0418403067177862, -6.306312152850327
1.0435072512085346, -4.248327621000878
1.0451741956992833, -0.8680801407221634
1.0468411401900317, 3.099222462221947
1.0485080846807802, 6.65824387201512
1.0501750291715286, -2.7269322707630614
1.051841973662277, -7.6386344836946884
1.0535089181530255, -1.7910187188714404
1.055175862643774, -1.7096798267743478
1.0568428071345224, -0.10371173462699168
1.0585097516252708, -0.556722594423998
1.0601766961160193, -5.6177641226599855
1.0618436406067677, 0.7665692546128882
1.0635105850975162, -1.2342922167742378
1.0651775295882646, -4.834525939408602
1.066844474079013, 1.1763932005661888
1.0685114185697615, -3.469760789582116
1.07017836306051, -0.2592360984397546
1.0718453075512584, 4.769141001046524
1.0735122520420068, 0.5491535067641174
1.0751791965327555, 9.833375852728885
1.076846141023504, 13.634884426769283
1.0785130855142524, 10.731087723445622
1.0801800300050008, 2.9615113057616247
1.0818469744957493, -7.46357817160539
1.0835139189864977, 9.41747499207395
1.0851808634772462, 4.385066184672685
1.0868478079679946, -2.1641209671658954
1.088514752458743, 5.435445937526363
1.0901816969494915, -9.946133568831987
1.09184864144024, -6.2031142239842
1.0935155859309884, -3.010743994480966
1.0951825304217369, -2.5349195499249353
1.0968494749124853, 6.686111421926848
1.0985164194032337, 2.3064322335846894
1.1001833638939822, 7.305832177506131
1.1018503083847306, 3.0915888817319472
1.103517252875479, -19.918715466355728
1.1051841973662277, -7.446978521838689
1.1068511418569762, 6.254968100531144
1.1085180863477246, -2.5443937332501356
1.110185030838473, -2.9969154067597326
1.1118519753292215, -4.3202786627456735
1.11351891981997, -15.647138009225484
1.1151858643107184, -6.702526529298863
1.1168528088014669, 12.12315348165684
1.1185197532922153, -6.393681198527694
1.1201866977829638, -1.0755614626554149
1.1218536422737122, 5.086840532552906
1.1235205867644606, -0.7539672517171003
1.125187531255209, -7.732587618680908
1.1268544757459575, 7.629709106651695
1.128521420236706, 33.52312936186687
1.1301883647274544, -1.1277499727790272
1.1318553092182029, -5.105849475818132
1.1335222537089515, -9.84534625482176
1.1351891981997, -3.9720465027134146
1.1368561426904484, 9.010336571391006
1.1385230871811969, -3.7018860850839728
1.1401900316719453, 0.12905362913542362
1.1418569761626938, -5.950412864417593
1.1435239206534422, -3.9081088416124135
1.1451908651441907, 1.8484786463238656
1.146857809634939, 18.163156935174644
1.1485247541256876, 2.627066393577269
1.150191698616436, -10.781452280584622
1.1518586431071844, 4.68016729057635
1.1535255875979329, -4.181959942101454
1.1551925320886813, 3.5364886279215897
1.1568594765794298, 17.374004681088564
1.1585264210701782, -8.229547663364258
1.1601933655609267, -9.654131451796179
1.1618603100516751, -6.185946416177828
1.1635272545424238, -6.583383304074513
1.1651941990331722, 18.802428120617463
1.1668611435239207, -6.383405773162387
1.1685280880146691, 1.4999764099353232
1.1701950325054176, -2.6674525546849557
1.171861976996166, -7.626948647328785
1.1735289214869145, 21.153837013578535
1.175195865977663, -0.18525651104630114
1.1768628104684113, 11.60823000688724
1.1785297549591598, -5.587526457756132
1.1801966994499082, -37.066769067110755
1.1818636439406567, -9.891494350100196
1.1835305884314051, 8.00190540038746
1.1851975329221536, -3.8111047086200025
1.186864477412902, 3.408066149664597
1.1885314219036505, -3.857858967807465
1.190198366394399, -2.3543365612765195
1.1918653108851474, 25.457429068650768
1.193532255375896, 6.315317495941432
1.1951991998666445, -5.569866984961375
1.196866144357393, -12.716163583661734
1.1985330888481414, 3.0551355993335885
1.2002000333388898, 5.720393419884916
1.2018669778296382, -4.936387299643026
1.2035339223203867, 5.990196385423573
1.2052008668111351, -7.9214855820456975
1.2068678113018836, -2.5279484583038734
1.208534755792632, -2.2074209566764464
1.2102017002833805, 5.408151326970397
1.211868644774129, 4.068679916486167
1.2135355892648774, -1.1400864889988
1.2152025337556258, 10.92790936492757
1.2168694782463743, -2.239069200974543
1.2185364227371227, 6.473691797875962
1.2202033672278711, -20.0086615433622
1.2218703117186198, -14.16212471220427
1.2235372562093683, 32.39791918776877
1.2252042007001167, -7.8059561224704845
1.2268711451908652, -9.239792752863323
1.2285380896816136, 11.789014852854898
1.230205034172362, 9.787620329931995
1.2318719786631105, -4.100993957235011
1.233538923153859, -6.783483762256579
1.2352058676446074, 12.691944115058135
1.2368728121353558, -15.033294099010856
1.2385397566261043, -2.9146853019081185
1.2402067011168527, 11.241449143278476
1.2418736456076012, 8.715526793392545
1.2435405900983496, 1.4790993353325794
1.245207534589098, -12.932333953279947
1.2468744790798465, -12.839397246407037
1.248541423570595, -6.291737163335271
1.2502083680613434, 18.572590075090048
1.251875312552092, -0.5037981353835965
1.2535422570428405, 3.6566088293615766
1.255209201533589, -14.347432349674476
1.2568761460243374, -4.962722449060436
1.2585430905150858, 30.636624289392064
1.2602100350058343, -6.770653805061116
1.2618769794965827, -5.111133240304689
1.2635439239873312, -17.096590618869474
1.2652108684780796, -5.39570148169858
1.266877812968828, -2.965465396626162
1.2685447574595765, -1.3136297035380382
1.270211701950325, 33.84272440644063
1.2718786464410734, 5.893136693211081
1.2735455909318218, -11.406356950120363
1.2752125354225703, -20.954610312162714
1.2768794799133187, -5.579458121941053
1.2785464244040672, -4.859289048477258
1.2802133688948159, -6.712823540537263
1.2818803133855643, 13.310617115168416
1.2835472578763127, 3.090743750021522
1.2852142023670612, 20.67976830189439
1.2868811468578096, -3.196407749705517
1.288548091348558, -19.750958579560212
1.2902150358393065, 1.5368510687132604
1.291881980330055, -14.110205251594746
1.2935489248208034, -7.5128154319282805
1.2952158693115519, 9.433591627551563
1.2968828138023003, 2.8279440473245923
1.2985497582930488, 5.773017933715025
1.3002167027837972, 25.626724565928058
1.3018836472745456, 13.913509300087448
1.303550591765294, -9.178479372824814
1.3052175362560425, -11.032450502978328
1.306884480746791, -6.750046026191655
1.3085514252375394, 1.1047651462249635
1.310218369728288, 10.712552783979568
1.3118853142190365, 11.482412418805815
1.313552258709785, 0.04173470360120013
1.3152192032005334, -2.8148012738105135
1.3168861476912819, -4.849542755672498
1.3185530921820303, -5.80468427903611
1.3202200366727788, -2.9546179457707518
1.3218869811635272, 0.40140830723584964
1.3235539256542757, 4.802701820391841
1.325220870145024, 7.640606281851736
1.3268878146357725, 4.519243049455032
1.328554759126521, -0.24417424208100552
1.3302217036172694, -2.741062265382684
1.3318886481080179, -9.352494761571842
1.3335555925987663, -2.9851565550339614
1.3352225370895148, -2.6996847295361555
1.3368894815802632, -2.2959796059252175
1.3385564260710117, 4.771558920886961
1.3402233705617603, 0.2007074815076546
1.3418903150525088, -1.8536048519017574
1.3435572595432572, -5.6093451331400095
1.3452242040340057, -6.513648697222059
1.3468911485247541, -4.784062793936898
1.3485580930155026, -4.200958306529034
1.350225037506251, -1.3096123133812418
1.3518919819969994, 3.0382254880857005
1.353558926487748, 2.886472841932517
1.3552258709784963, 0.12628667963590745
1.3568928154692448, 0.9053767835145597
1.3585597599599932, -0.013776365878381047
1.3602267044507417, -1.1567649370378423
1.3618936489414901, 0.5709822509942332
1.3635605934322386, 3.7649356994877072
1.365227537922987, 1.8803310957671642
1.3668944824137355, 2.693447306505141
1.3685614269044841, 3.9600705924432598
1.3702283713952326, 1.617194225001776
1.371895315885981, -0.11559882095497231
1.3735622603767295, -1.4886518632399692
1.375229204867478, 0.7292695484351674
1.3768961493582264, 0.36235264198572614
1.3785630938489748, -1.450931484941337
1.3802300383397232, -0.8162817516540497
1.3818969828304717, 1.3665003555083945
1.3835639273212201, -1.9832443659050116
1.3852308718119686, 0.17809710701799286
1.386897816302717, 7.917449920792043
1.3885647607934655, 1.970812389414541
1.390231705284214, -0.06279961071073847
1.3918986497749624, 0.7392464838522432
1.3935655942657108, -2.8908220085866825
1.3952325387564593, -2.507034212259507
1.3968994832472077, -3.5536292940429073
1.3985664277379564, -0.7455644752844697
1.4002333722287048, -1.055728060046004
1.4019003167194533, -1.9418362137023344
1.4035672612102017, 1.5782683594126086
1.4052342057009501, -1.043782886712703
1.4069011501916986, -0.7026539030863255
1.408568094682447, -0.9780509039922175
1.4102350391731955, -1.973782481647981
1.411901983663944, -1.6604089752639253
1.4135689281546924, 1.6846979730880052
1.4152358726454408, 2.9770357608730533
1.4169028171361893, 0.2200039047687723
1.4185697616269377, 3.9524857584038564
1.4202367061176862, 1.6367894729752086
1.4219036506084346, 0.2125994478714981
1.423570595099183, 0.007384262233447791
1.4252375395899315, -1.3630114198144536
1.42690448408068, -0.5470925530579301
1.4285714285714286, 1.0709040850722198
1.430238373062177, 3.101537116227181
1.4319053175529255, 3.372992904320233
1.433572262043674, 3.041394044737515
1.4352392065344224, -0.5408979626233095
1.4369061510251708, 2.2863462526946297
1.4385730955159193, 0.32591049206053985
1.4402400400066677, -5.232276800263
1.4419069844974162, -4.9544385735114975
1.4435739289881646, -4.644801195493775
1.445240873478913, -3.265692896836758
1.4469078179696615, -0.10253316873458429
1.44857476246041, -0.4908541754011444
1.4502417069511584, -1.7335872770624248
1.4519086514419068, 3.4484088439137865
1.4535755959326553, -0.6095434174843328
1.4552425404234037, -2.4315297226919546
1.4569094849141524, 1.2670684696149412
1.4585764294049008, -1.176394411943456
1.4602433738956493, 0.952031786756067
1.4619103183863977, 2.1253736019500407
1.4635772628771462, 1.5352365891210877
1.4652442073678946, 2.3679398956300726
1.466911151858643, 1.1167071508955626
1.4685780963493915, 2.4493542894603384
1.47024504084014, 4.787385091925885
1.4719119853308884, 0.2893479109879019
1.4735789298216369, -8.388673973042472
1.4752458743123853, -3.1526812818677645
1.4769128188031337, 1.6071781947147334
1.4785797632938822, -1.859811005676599
1.4802467077846306, 3.732280873441643
1.481913652275379, 1.2531186843496545
1.4835805967661275, 1.8803012503228609
1.485247541256876, 3.3293321681061245
1.4869144857476246, -4.094339067342643
1.488581430238373, -7.469058300544748
1.4902483747291215, 0.6734605691829578
1.49191531921987, 5.983081733353897
1.4935822637106184, -9.88691954174108
1.4952492082013669, -5.27122786585591
1.4969161526921153, 1.2470358048377843
1.4985830971828638, -1.2806062176122337
1.5002500416736122, 9.17820544075108
1.5019169861643606, 5.845472534127296
1.503583930655109, -4.9543915042817925
1.5052508751458575, -7.016183565890457
1.506917819636606, 6.981124129408295
1.5085847641273544, 4.028701095866804
1.5102517086181029, -8.908540080718154
1.5119186531088513, 4.8960283059053635
1.5135855975995998, 0.46221721805035987
1.5152525420903482, -5.484170978654628
1.5169194865810969, 6.161591441534963
1.5185864310718453, -1.164419500639845
1.5202533755625938, -0.7706586383876157
1.5219203200533422, 9.835218297996596
1.5235872645440907, 5.663589339149626
1.525254209034839, -7.465676423127697
1.5269211535255875, -3.5773705720288955
1.528588098016336, 12.984142442198458
1.5302550425070844, 7.437036803665532
1.5319219869978329, 8.25845434986918
1.5335889314885813, 14.613872626715137
1.5352558759793298, -1.539862677778387
1.5369228204700782, -23.17810380471374
1.5385897649608267, -21.254965767209328
1.5402567094515751, -10.133269021245534
1.5419236539423236, -5.6557248044199
1.543590598433072, 7.481073334362881
1.5452575429238207, -1.4432326225864225
1.5469244874145691, -5.6420432579259705
1.5485914319053176, -5.3135184668061815
1.550258376396066, -0.7547617227046981
1.5519253208868145, -3.080786726590519
1.553592265377563, 1.0875069068679837
1.5552592098683113, 20.17566660324261
1.5569261543590598, 0.15565359713432425
1.5585930988498082, 5.019675752515878
1.5602600433405567, -11.925416138927115
1.5619269878313051, 0.7103812342760252
1.5635939323220536, 4.677213717099169
1.565260876812802, -5.564537631427141
1.5669278213035505, 29.6999595603332
1.568594765794299, -3.351938417134958
1.5702617102850474, -1.5423183050824871
1.5719286547757958, -14.673581940919144
1.5735955992665442, -4.308979605281962
1.575262543757293, 14.990812497018947
1.5769294882480414, -10.313246021688245
1.5785964327387898, 20.466673150034204
1.5802633772295382, -14.41123546030089
1.5819303217202867, -25.448958111465384
1.5835972662110351, 24.704946193424608
1.5852642107017836, -3.2317124887189737
1.586931155192532, -14.326043243219226
1.5885980996832805, 19.278932832907234
1.590265044174029, 2.4959002230037837
1.5919319886647774, -0.10356621767918917
1.5935989331555258, 0.47844863012505023
1.5952658776462743, -6.82223942729133
1.5969328221370227, 8.113026955189724
1.5985997666277711, -9.423319772850046
1.6002667111185196, -1.0917732079290632
1.601933655609268, 21.607780454426614
1.6036006001000165, 0.24912828931397213
1.6052675445907651, -12.045170431546042
1.6069344890815136, -3.672250722615902
1.608601433572262, -1.4922915100234184
1.6102683780630105, 7.135487829112014
1.611935322553759, -3.6515564264134337
1.6136022670445074, -19.501653981471705
1.6152692115352558, -11.301590272897858
1.6169361560260043, -1.8534707198474756
1.6186031005167527, 9.838864435113194
1.6202700450075012, 14.796625304129957
1.6219369894982496, 19.035811771037096
1.623603933988998, -3.787890660701308
1.6252708784797465, -27.501807810979038
1.626937822970495, -3.774105654834067
1.6286047674612434, 0.36897156586033475
1.6302717119519918, 3.7419733565883533
1.6319386564427403, 10.720745332653333
1.633605600933489, 2.7462056813897644
1.6352725454242374, 7.5367956728213015
1.6369394899149858, -21.67597852842507
1.6386064344057343, 0.7043217879154486
1.6402733788964827, 23.64180884871812
1.6419403233872312, -23.937697502051275
1.6436072678779796, 1.8717088111483733
1.645274212368728, 13.486262843485868
1.6469411568594765, -1.882216645871429
1.648608101350225, 5.927747466713226
1.6502750458409734, -2.579258262622517
1.6519419903317218, 14.366978541768821
1.6536089348224703, 3.8301025852313364
1.6552758793132187, -24.26215443577121
1.6569428238039672, -6.539891847339353
1.6586097682947156, 12.903419978782958
1.660276712785464, -3.5206391438420934
1.6619436572762125, -11.303627326303669
1.6636106017669612, 7.048359789155562
1.6652775462577096, 17.995317283739755
1.666944490748458, -11.76346993535182
1.6686114352392065, -14.192164498665944
1.670278379729955, 23.947334600016156
1.6719453242207034, -14.673009730610268
1.6736122687114519, -18.106757157415753
1.6752792132022003, 9.911961718020592
1.6769461576929487, 1.6687595332202578
1.6786131021836972, 0.9617104192719663
1.6802800466744456, 5.9177337333098645
1.681946991165194, 28.731095035932057
1.6836139356559425, -10.496432751483784
1.685280880146691, -18.795658376131836
1.6869478246374394, 19.57078147992896
1.6886147691281879, 3.1081916496753124
1.6902817136189363, -15.537324614185572
1.6919486581096848, -8.953005566053548
1.6936156026004334, 10.558726264371437
1.6952825470911819, 6.6680098395557055
1.6969494915819303, -8.871750143641378
1.6986164360726788, -16.22434874339278
1.7002833805634272, -15.744968537782693
1.7019503250541757, -3.632845324998144
1.703617269544924, 17.838813616414612
1.7052842140356725, 4.597769783921226
1.706951158526421, -6.342650608193209
1.7086181030171694, 12.697200016459345
1.7102850475079179, -4.538472353209464
1.7119519919986663, -5.127092878711357
1.7136189364894148, 4.059350005377746
1.7152858809801632, -1.7508553905653614
1.7169528254709117, 6.345829606546632
1.71861976996166, 6.8665029422530495
1.7202867144524085, 7.2809109567220816
1.7219536589431572, 2.714337702121922
1.7236206034339057, -0.14154762922622277
1.725287547924654, 1.7526933305008525
1.7269544924154026, -3.9024102453811196
1.728621436906151, -2.089307200694151
1.7302883813968994, 4.052110283444581
1.731955325887648, 1.0776220980408386
1.7336222703783963, -7.183295034451197
1.7352892148691448, -0.8935799701140708
1.7369561593598932, 2.515402477142132
1.7386231038506417, -1.1624779818937059
1.7402900483413901, 2.270645601192036
1.7419569928321386, -1.861835841041593
1.743623937322887, -4.836271738834309
1.7452908818136355, -2.0588446394992874
1.746957826304384, -2.7948885570826505
1.7486247707951323, 0.2655327867269086
1.7502917152858808, 7.327395497270372
1.7519586597766295, 1.2124630414305184
1.753625604267378, -3.5978145567848996
1.7552925487581263, -4.061961872579371
1.7569594932488748, -4.722246025528275
1.7586264377396232, -3.3922814537781423
1.7602933822303717, -3.170915393229222
1.7619603267211201, 4.346188992408907
1.7636272712118686, 0.0011212679473748821
1.765294215702617, -3.7951230444278634
1.7669611601933655, -2.176026725166926
1.768628104684114, -3.8371107357784653
1.7702950491748624, 1.3937041895915727
1.7719619936656108, 2.156707573311065
1.7736289381563592, 1.8336907150913786
1.7752958826471077, 3.117257678813197
1.7769628271378561, 2.2593066017431633
1.7786297716286046, 1.9957244612197287
1.780296716119353, 2.757614835667532
1.7819636606101017, 2.7741748160325694
1.7836306051008501, 2.3804772519285766
1.7852975495915986, 2.465707257033009
1.786964494082347, 1.1459185769195288
1.7886314385730955, -1.8912372908203368
1.790298383063844, -3.9558539159943056
1.7919653275545924, -0.24143627404161294
1.7936322720453408, 2.0458167975377712
1.7952992165360893, 0.47753876602454826
1.7969661610268377, 3.111603385394188
1.7986331055175862, -1.6756318631975078
1.8003000500083346, -1.795288330226576
1.801966994499083, 4.339447716219063
1.8036339389898315, -3.692857718301721
1.80530088348058, -2.470370765819611
1.8069678279713284, 1.4315979727454038
1.8086347724620768, -0.13543723644449268
1.8103017169528255, 0.6160339007615534
1.811968661443574, -1.7069877422604205
1.8136356059343224, 0.9011746672224351
1.8153025504250708, 0.7690124414493331
1.8169694949158193, 0.30805372829490957
1.8186364394065677, 1.2689417198579853
1.8203033838973162, 0.8309552972303549
1.8219703283880646, 0.7911143210845382
1.823637272878813, -1.553965557740212
1.8253042173695615, 0.3444443383170366
1.82697116186031, 0.12468478964591712
1.8286381063510584, -3.0616642351062913
1.8303050508418068, -2.1590463229117276
1.8319719953325553, 0.5808725845478239
1.8336389398233037, -1.4295941777822319
1.8353058843140522, -3.716527707232648
1.8369728288048006, 1.28553212664462
1.838639773295549, 1.0649673925695098
1.8403067177862977, -0.04475562103082942
1.8419736622770462, 0.9481457291896063
1.8436406067677946, -0.4463709802013932
1.845307551258543, -1.053333576866402
1.8469744957492915, -0.9241502250913992
1.84864144024004, 1.0489115140913823
1.8503083847307884, -0.4487353087816853
1.8519753292215368, 0.21011089220128418
1.8536422737122853, 1.0433758251828378
1.8553092182030337, 2.3603626034032215
1.8569761626937822, 2.633063284108976
1.8586431071845306, -3.5725294496204505
1.860310051675279, -2.609047103508411
1.8619769961660275, 2.364735559935857
1.863643940656776, -1.6486850128815909
1.8653108851475244, -4.828950562344395
1.8669778296382729, 1.4983211474583678
1.8686447741290213, -0.10442288909077013
1.87031171861977, -1.2306326148979152
1.8719786631105184, 2.624667807611646
1.8736456076012669, 2.075877925536882
1.8753125520920153, 2.453351065368887
1.8769794965827638, 1.3352669352756443
1.8786464410735122, 1.4523727294534794
1.8803133855642606, 0.4997829597840652
1.881980330055009, -0.35428427863553713
1.8836472745457575, -0.4301443350707481
1.885314219036506, -0.9936572446308218
1.8869811635272544, 0.5895501834862037
1.8886481080180029, 0.4679760227522757
1.8903150525087513, -1.3705432159807343
1.8919819969994998, 2.946097907234245
1.8936489414902482, 3.7638859719552635
1.8953158859809967, -2.638016528013579
1.896982830471745, 0.04788961093057065
1.8986497749624938, 0.6640929981129977
1.9003167194532422, -3.49948327329089
1.9019836639439907, -1.1601718662866232
1.903650608434739, 1.1002960349475601
1.9053175529254875, -0.08547883613046225
1.906984497416236, -2.2080656023540195
1.9086514419069844, -1.0579090251335712
1.9103183863977329, 0.498335804685589
1.9119853308884813, -1.0078033021883883
1.9136522753792298, 0.1355970779782042
1.9153192198699782, -1.8665399484700138
1.9169861643607267, 1.63318436696172
1.918653108851475, 3.4103327379300166
1.9203200533422236, -3.040124732014669
1.921986997832972, -0.18305796048945278
1.9236539423237204, -0.8533149660164343
1.925320886814469, -1.7178166711741882
1.9269878313052173, -0.7108590346463249
1.928654775795966, 1.6831446230347207
1.9303217202867144, -0.4830706430727573
1.931988664777463, 0.890334537894014
1.9336556092682113, 4.937343945211488
1.9353225537589598, -2.170889825079365
1.9369894982497082, -1.4244472357696405
1.9386564427404567, -1.4707456339977065
1.9403233872312051, 1.3420452476526687
1.9419903317219536, 0.13373338406793095
1.943657276212702, 1.0505091617045232
1.9453242207034505, 0.8534583013903295
1.946991165194199, 2.486300718434639
1.9486581096849473, 3.8819381085207607
1.9503250541756958, -9.501481935787531
1.9519919986664442, 0.3076252349240005
1.9536589431571927, -1.9293411507966964
1.9553258876479411, -1.9290341410218703
1.9569928321386896, 6.3281616472452615
1.9586597766294382, -1.006123269909218
1.9603267211201867, 5.476814780878494
1.9619936656109351, 3.8624545563772568
1.9636606101016836, -3.2867025180194718
1.965327554592432, -6.490804394111548
1.9669944990831805, -2.838880726978611
1.968661443573929, -1.1465253256860786
1.9703283880646774, -2.1453231645532695
1.9719953325554258, 5.896559475096858
1.9736622770461743, 7.760084081506427
1.9753292215369227, 3.6918516099436696
1.9769961660276711, -4.191786677364611
1.9786631105184196, -6.685776506808887
1.980330055009168, 0.9202961472954959
1.9819969994999165, 4.841472179675723
1.983663943990665, 0.020510642864689288
1.9853308884814134, -3.6531288118583247
1.986997832972162, 1.040913251125535
1.9886647774629105, 3.8956554267574663
1.990331721953659, -0.07446945929101448
1.9919986664444074, -6.459946023602445
1.9936656109351558, -6.3629502733039915
1.9953325554259043, 0.3113771131485997
1.9969994999166527, 1.1655327816764356
1.9986664444074012, 0.21160963679222322
2.0003333888981496, 3.5352279706886156
2.002000333388898, 4.208912498000002
2.0036672778796465, 0.8057445729757268
2.005334222370395, -2.7608238838003665
2.0070011668611434, -2.932772648621684
2.008668111351892, -0.7871304776274135
2.0103350558426403, -1.5696158506196962
2.0120020003333887, -4.972839658700621
2.013668944824137, -4.989657147129417
2.0153358893148856, 2.585139437704087
2.017002833805634, -3.097583050194743
2.0186697782963825, -0.1766166533092849
2.020336722787131, 17.15067474220063
2.0220036672778794, 2.743033092588365
2.023670611768628, -5.27975223005981
2.0253375562593763, -4.5729482956158165
2.0270045007501247, -7.505500017863746
2.028671445240873, 14.025438965312436
2.0303383897316216, 21.30493247977614
2.0320053342223705, 7.715692609556247
2.033672278713119, -3.026696084001146
2.0353392232038674, -8.335569764485456
2.037006167694616, -7.655181551843419
2.0386731121853643, -16.000576668895732
2.0403400566761127, 1.3157759778443083
2.042007001166861, 15.78091440746514
2.0436739456576096, -12.134032980817182
2.045340890148358, -10.029409604902888
2.0470078346391065, 3.083574005300224
2.048674779129855, 0.4233831225415994
2.0503417236206034, -3.849020389413856
2.052008668111352, 5.92874479136001
2.0536756126021003, 11.280546971670166
2.0553425570928487, -10.709566407153805
2.057009501583597, -1.3678941035163148
2.0586764460743456, 3.3991775467280716
2.060343390565094, -3.738119517059896
2.0620103350558425, 3.2548868778032056
2.063677279546591, 5.130267649101141
2.0653442240373394, 7.933906552394527
2.067011168528088, -12.851397886901264
2.0686781130188363, -11.459877706823924
2.0703450575095848, 10.218851554046289
2.072012002000333, 0.17931219342197835
2.0736789464910816, 0.24507774709454555
2.07534589098183, -1.045415888988556
2.0770128354725785, 2.139195157339598
2.078679779963327, 6.950381162875643
2.0803467244540754, -8.150565908557066
2.082013668944824, -3.8065773255276905
2.0836806134355723, 3.400406242103118
2.0853475579263208, 3.621664437203264
2.087014502417069, -12.096132675947917
2.0886814469078177, -1.9009794631342913
2.0903483913985665, 21.517160008673923
2.092015335889315, -7.522821423183191
2.0936822803800634, -1.6285297678121182
2.095349224870812, 12.66275065568871
2.0970161693615603, -5.477901380091131
2.0986831138523088, 3.64108482108837
2.100350058343057, -1.0489480212001356
2.1020170028338057, -8.545594961370167
2.103683947324554, 4.597833534484632
2.1053508918153025, -17.828104998138603
2.107017836306051, -12.615035119163618
2.1086847807967994, 31.868722338043046
2.110351725287548, 13.23768905431847
2.1120186697782963, -8.391254225788687
2.1136856142690448, 0.09606351288946202
2.1153525587597932, 9.444648829038698
2.1170195032505417, 3.900420405425581
2.11868644774129, -27.554315008958813
2.1203533922320386, -10.439407107567572
2.122020336722787, 9.719962809428331
2.1236872812135354, 3.9550788071562586
2.125354225704284, 3.388058433242228
2.1270211701950323, -4.0157895334426
2.128688114685781, -0.4874771507271185
2.1303550591765292, -9.356294805838376
2.1320220036672777, -8.963104272115118
2.133688948158026, 1.059528444964068
2.1353558926487746, 4.7834793120092804
2.137022837139523, 7.455674818238627
2.1386897816302715, 2.513071207010996
2.14035672612102, 5.074816548987846
2.1420236706117683, 6.0105434043007655
2.143690615102517, -3.904628338585154
2.1453575595932652, -14.846019796825377
2.1470245040840137, -2.4198901814399973
2.1486914485747626, 6.942656788330501
2.150358393065511, 0.4704504217076926
2.1520253375562595, 7.479605616564735
2.153692282047008, 8.622004097515786
2.1553592265377564, -12.079044150082535
2.157026171028505, -9.136404757046265
2.1586931155192532, 4.412422057480338
2.1603600600100017, -1.9401859622827182
2.16202700450075, 8.031802563108933
2.1636939489914986, 5.157678827726913
2.165360893482247, 0.7596143954170202
2.1670278379729955, 12.1938301888141
2.168694782463744, 0.4972156015699063
2.1703617269544924, -14.74496575327344
2.172028671445241, -2.877384380168515
2.1736956159359893, 6.417330621400692
2.1753625604267377, -2.4497799057440566
2.177029504917486, 7.697482155528611
2.1786964494082346, 6.766198997284259
2.180363393898983, 0.0382138551348723
2.1820303383897315, -1.1755584705747628
2.18369728288048, -11.665931475860297
2.1853642273712284, -3.1921332751686964
2.187031171861977, -6.521718663562563
2.1886981163527253, -1.2123626550709043
2.1903650608434737, 11.392443652817885
2.192032005334222, -14.187601392540117
2.1936989498249706, -5.976772054528902
2.195365894315719, 23.921916500437895
2.1970328388064675, -3.670984810977644
2.198699783297216, -15.84414378043371
2.2003667277879644, 7.279554465774304
2.202033672278713, -7.452602536949787
2.2037006167694613, 8.868410273647733
2.2053675612602097, 26.10426562043405
2.207034505750958, -16.860799552733628
2.208701450241707, -23.22465866934226
2.2103683947324555, -4.7816587768207635
2.212035339223204, 10.427899532326215
2.2137022837139524, 2.3130878683491654
2.215369228204701, -2.1204971679660494
2.2170361726954493, 12.646476509436319
2.2187031171861977, -7.016308626318642
2.220370061676946, -5.637701594125448
2.2220370061676946, -1.2880712114116586
2.223703950658443, -7.532403042060506
2.2253708951491915, -2.8286722767135357
2.22703783963994, 0.8516045540498829
2.2287047841306884, 6.549833342238053
2.230371728621437, 1.3588746410101682
2.2320386731121853, 4.033860612999303
2.2337056176029337, 2.8621517274342905
2.235372562093682, -1.250305756420684
2.2370395065844306, 2.2965290040731112
2.238706451075179, 2.7500644062684234
2.2403733955659275, 0.6512863878029178
2.242040340056676, 0.034787311822425115
2.2437072845474244, 7.940822698734165
2.245374229038173, 7.57970054071648
2.2470411735289213, 2.1798493535569774
2.2487081180196697, -0.6466398321803801
2.250375062510418, 0.37661986995911656
2.2520420070011666, 0.31551158888628916
2.253708951491915, -8.457676009734486
2.2553758959826635, -5.593946554874548
2.257042840473412, 0.7028842317469293
2.2587097849641604, 0.5400319105267786
2.260376729454909, 1.8991282440077444
2.2620436739456573, 2.617565187649784
2.2637106184364058, 1.173168975531367
2.265377562927154, -0.4561476388968362
2.267044507417903, -2.4495266789216465
2.2687114519086515, -6.752219833267707
2.2703783963994, -2.9717824857042676
2.2720453408901484, -0.3094601581798013
2.273712285380897, -0.4242386797000335
2.2753792298716453, 3.861278424114433
2.2770461743623938, 4.146445382700952
2.278713118853142, 3.764893479743762
2.2803800633438907, -1.3087714472004608
2.282047007834639, -1.5859074616858475
2.2837139523253875, -0.8377874671837642
2.285380896816136, -5.165989016038603
2.2870478413068844, -0.4960059009572201
2.288714785797633, -1.9259510824900352
2.2903817302883813, -6.355502408800616
2.2920486747791298, -1.7881792042289453
2.293715619269878, 3.499626227770812
2.2953825637606267, 0.33953693535717244
2.297049508251375, -1.0055959924306705
2.2987164527421236, 2.5371163760513538
2.300383397232872, -1.9088047183965355
2.3020503417236204, -1.155719934501971
2.303717286214369, 2.8119312402010186
2.3053842307051173, 1.2442019593490707
2.3070511751958658, 2.2439665968919527
2.3087181196866142, 2.6654153797087283
2.3103850641773627, -0.47217572458590373
2.312052008668111, -0.0006080823431278137
2.3137189531588596, -0.1679973537403645
2.315385897649608, -1.8714270669187216
2.3170528421403565, -2.681098518835304
2.318719786631105, 0.9618508617275653
2.3203867311218533, 0.10539704155396512
2.322053675612602, -3.5280833952292827
2.3237206201033502, 3.2268587981187005
2.325387564594099, 1.722321131903418
2.3270545090848476, 0.6195997267311741
2.328721453575596, -0.13187085002981525
2.3303883980663445, -2.8636903258466724
2.332055342557093, -1.8791395610649846
2.3337222870478413, 0.5954451565196665
2.33538923153859, -1.3133687740445303
2.3370561760293382, -4.153142053731745
2.3387231205200867, 5.701360348891957
2.340390065010835, 4.8271421291742715
2.3420570095015836, 4.189384053074048
2.343723953992332, 4.581276431704138
2.3453908984830805, 0.06336030496725065
2.347057842973829, 1.2414103788583994
2.3487247874645774, 1.1635648168290247
2.350391731955326, 1.9762291294002032
2.3520586764460742, -0.6858608962166232
2.3537256209368227, 1.9375373099572548
2.355392565427571, 4.37089381605843
2.3570595099183196, -4.776326995503609
2.358726454409068, -2.7510009424739286
2.3603933988998165, 2.8632556147224704
2.362060343390565, -6.067158036170924
2.3637272878813134, -6.185578698042406
2.365394232372062, -4.528613100232064
2.3670611768628103, -3.020488070253948
2.3687281213535587, 2.956186035485159
2.370395065844307, 0.23708207851008423
2.3720620103350556, 0.4851250248291663
2.373728954825804, 0.4805943194216362
2.3753958993165525, -1.8713538451227203
2.377062843807301, -1.3549764359080751
2.3787297882980494, -0.08590064165007694
2.380396732788798, -0.28766152841673187
2.3820636772795463, -0.17014925675900106
2.3837306217702947, -1.2999054435855126
2.3853975662610436, -1.1582833868279456
2.387064510751792, 1.6417479404187618
2.3887314552425405, -0.08695130304004506
2.390398399733289, 2.567557869297276
2.3920653442240374, 4.019463478170223
2.393732288714786, 0.49488934642045496
2.3953992332055343, 0.15114920776755914
2.3970661776962827, 0.43170982347741504
2.398733122187031, -2.696433465539723
2.4004000666777796, -0.6118792537419961
2.402067011168528, 4.4649039518155424
2.4037339556592765, -1.6137854313077002
2.405400900150025, 0.6101756971628014
2.4070678446407734, 3.4589688736400475
2.408734789131522, 0.7099409548198283
2.4104017336222703, 0.6332153238946707
2.4120686781130187, -1.2468812731945627
2.413735622603767, 3.9047999156559565
2.4154025670945156, -0.2319665511851005
2.417069511585264, -2.773155178199212
2.4187364560760125, -3.1794438588646905
2.420403400566761, -2.4732145415380193
2.4220703450575094, 5.9836090171968195
2.423737289548258, -2.2544796508118394
2.4254042340390063, -4.703689334267449
2.4270711785297547, 0.8723184709142346
2.428738123020503, -3.258996587179176
2.4304050675112516, -6.047983366394501
2.432072012002, -1.7485664019165421
2.4337389564927485, -1.9367446881050292
2.435405900983497, -1.256847853575822
2.4370728454742454, 5.282644288642121
2.438739789964994, 1.149409327146566
2.4404067344557423, -0.3487657828106794
2.4420736789464907, 2.4472182436111805
2.4437406234372396, 3.1574081183472877
2.445407567927988, 2.662252016868599
2.4470745124187365, 0.7427960752736997
2.448741456909485, -0.1473313339529867
2.4504084014002334, -0.6752862042898349
2.452075345890982, 2.083141728369701
2.4537422903817303, 0.8220799476656765
2.4554092348724788, 0.40154648812899585
2.457076179363227, 5.174894716139602
2.4587431238539756, 2.8247704330671426
2.460410068344724, -1.6452469311347846
2.4620770128354725, -2.6674320690239033
2.463743957326221, 0.3698067439942866
2.4654109018169694, 3.865719213889715
2.467077846307718, -2.734033145641576
2.4687447907984663, -3.670182726321074
2.4704117352892148, 2.12000380733306
2.472078679779963, -0.3899553049027522
2.4737456242707117, -4.979463415932565
2.47541256876146, 2.5971296141709272
2.4770795132522085, 8.041248392131983
2.478746457742957, -0.7841044699169888
2.4804134022337054, 8.217474738424547
2.482080346724454, 7.444103268856799
2.4837472912152023, -10.462505761577678
2.4854142357059508, -3.686447413856714
2.487081180196699, -8.050351557381653
2.4887481246874477, -15.09868435221195
2.490415069178196, -8.630817241408124
2.4920820136689446, -6.670717149514457
2.493748958159693, 1.6729238509686715
2.4954159026504414, -0.22969535947164577
2.49708284714119, 1.6981389496173076
2.4987497916319383, 6.435361957853582
2.500416736122687, 3.2707634633121163
2.5020836806134357, -0.47369927867520367
2.503750625104184, -2.736392799205471
2.5054175695949326, 4.169000774652222
2.507084514085681, 0.6584642421381448
2.5087514585764294, 2.3587182113946614
2.510418403067178, 8.581643617093448
2.5120853475579263, -11.058040264389145
2.513752292048675, -10.701234751082533
2.5154192365394232, 17.638681984832427
2.5170861810301717, 17.173079015404742
2.51875312552092, 17.098533305015287
2.5204200700116686, 0.5904397606010532
2.522087014502417, -15.006931281597769
2.5237539589931655, -1.1510815028915138
2.525420903483914, 0.1366581048660639
2.5270878479746623, 3.0388132703579513
2.528754792465411, -8.411166693079883
2.5304217369561592, -5.024272965489351
2.5320886814469077, -1.3272929736549353
2.533755625937656, -2.7605916799510215
2.5354225704284046, -3.1188344635597733
2.537089514919153, -3.6843035090684526
2.5387564594099015, 4.703902881666785
2.54042340390065, -1.2170904894032626
2.5420903483913984, 8.450899724269263
2.543757292882147, -3.5402280934682437
2.5454242373728952, -3.8481167647805314
2.5470911818636437, 9.449035547075374
2.548758126354392, -5.4258453847162516
2.5504250708451406, -9.934953681611715
2.552092015335889, -0.6624096846445977
2.5537589598266375, 5.694799562131414
2.555425904317386, -0.940036243944991
2.5570928488081344, -0.3372870047605321
2.558759793298883, 4.47103131218674
2.5604267377896317, 8.14542698280929
2.56209368228038, 2.465399895556892
2.5637606267711286, -5.847495100273346
2.565427571261877, -14.910149488478332
2.5670945157526255, -11.4323935563012
2.568761460243374, 4.479448531455535
2.5704284047341224, 10.227632324634936
2.572095349224871, 13.772300097791703
2.5737622937156193, 3.0042087246307703
2.5754292382063677, -4.958215721153155
2.577096182697116, -9.150319455410347
2.5787631271878646, 3.2779943222645724
2.580430071678613, 12.787296751461616
2.5820970161693615, -5.576558480032078
2.58376396066011, -7.142461425667105
2.5854309051508584, 1.4353591830203596
2.587097849641607, 7.059656138010069
2.5887647941323553, 2.3312239046054013
2.5904317386231037, 4.327625092290791
2.592098683113852, 8.189937844695676
2.5937656276046006, -6.44817613308779
2.595432572095349, -15.88601077047587
2.5970995165860975, -5.372826703029055
2.598766461076846, 6.180851412191904
2.6004334055675944, -10.504519059231633
2.602100350058343, -7.585144928977471
2.6037672945490913, 9.155554944359283
2.6054342390398397, 5.797596566331192
2.607101183530588, -4.365694297763729
2.6087681280213366, -8.690303656103769
2.610435072512085, 11.940747250137404
2.6121020170028335, 4.969794012191627
2.613768961493582, -8.957192498236559
2.6154359059843304, 2.834406679430305
2.617102850475079, 9.890519097887996
2.6187697949658273, 12.954815435368253
2.620436739456576, -7.5319257510208715
2.6221036839473246, -15.674231952289807
2.623770628438073, -0.1676564171703092
2.6254375729288215, -5.13571111093018
2.62710451741957, -4.8862998663704555
2.6287714619103184, 7.424412004139631
2.630438406401067, 5.488904187802505
2.6321053508918153, 9.830653581960267
2.6337722953825637, -6.858351243145516
2.635439239873312, -15.078725650274006
2.6371061843640606, 24.214907859748582
2.638773128854809, 5.594796708210984
2.6404400733455575, -21.228427927349987
2.642107017836306, -1.167927155706356
2.6437739623270544, -7.20544961991496
2.645440906817803, -3.326730203448785
2.6471078513085513, 16.22467433350992
2.6487747957992998, 9.175465953401588
2.650441740290048, 6.997143920338903
2.6521086847807966, 6.387506441913537
2.653775629271545, -14.945380845698603
2.6554425737622935, -13.652229118254574
2.657109518253042, -5.659815001832325
2.6587764627437904, -0.8984019496835558
2.660443407234539, 12.770324214216643
2.6621103517252873, 10.737301450654211
2.6637772962160358, 7.196870312231253
2.665444240706784, 2.419912970161439
2.6671111851975327, -6.611740513001048
2.668778129688281, -18.60969918840398
2.6704450741790295, -0.9441803839335865
2.672112018669778, 15.916493807393065
2.6737789631605264, -7.076783055672747
2.675445907651275, -0.786306485686274
2.6771128521420233, 9.809865867271645
2.678779796632772, -9.629328338976451
2.6804467411235207, -9.311086334198151
2.682113685614269, 1.3145676491276606
2.6837806301050176, 3.7022042934263903
2.685447574595766, 8.815906650393114
2.6871145190865144, 2.1402709696735824
2.688781463577263, 13.524892614126603
2.6904484080680113, 10.390922472003448
2.6921153525587598, -26.96012111516607
2.6937822970495082, -23.14195829662477
2.6954492415402567, -7.004578037896474
2.697116186031005, 3.8778139810170593
2.6987831305217536, 11.132114113606237
2.700450075012502, 6.669827852001166
2.7021170195032505, 7.3235066522164445
2.703783963993999, 3.3268747345175376
2.7054509084847473, 13.57708401111669
2.707117852975496, -6.186607838971027
2.7087847974662442, -14.959398537935831
2.7104517419569927, 24.952199119922884
2.712118686447741, -0.9863544336217087
2.7137856309384896, -12.575329200806891
2.715452575429238, -21.082309112270345
2.7171195199199865, -32.1609297229648
2.718786464410735, 16.183655964784965
2.7204534089014833, 2.8714759693211427
2.722120353392232, -6.898463631837333
2.7237872978829802, 7.391554009117076
2.7254542423737287, -3.2615584052779902
2.727121186864477, -3.5180423606141553
2.7287881313552256, -0.026721350531010657
2.730455075845974, 8.35728356169506
2.7321220203367225, 8.597434019971164
2.733788964827471, 8.256568164207252
2.7354559093182194, 6.4083765801795565
2.7371228538089682, 0.3660523155375155
2.7387897982997167, 0.2623702177147944
2.740456742790465, 3.7858192415287464
2.7421236872812136, 5.087942660310995
2.743790631771962, 5.529975435078036
2.7454575762627105, 4.874626013768028
2.747124520753459, -1.4545504694866973
2.7487914652442074, -2.3493378375451637
2.750458409734956, 0.7375921217935246
2.7521253542257043, -0.5404413624891162
2.7537922987164527, -0.005388935439259668
2.755459243207201, 0.3408119240095412
2.7571261876979496, -1.7919630624336018
2.758793132188698, -1.684756979102046
2.7604600766794465, -1.7108122066684892
2.762127021170195, 1.3755599300590167
2.7637939656609434, -0.8208230335608988
2.765460910151692, -5.514833440160821
2.7671278546424403, 0.8500343322084118
2.7687947991331887, -0.41538577149965894
2.770461743623937, -3.699109333438872
2.7721286881146856, -0.40126333238470924
2.773795632605434, -3.4439078794052467
2.7754625770961825, -2.5594744286163214
2.777129521586931, -1.3364488595063206
2.7787964660776794, -1.9814899170912292
2.780463410568428, -1.3159422576749205
2.7821303550591763, -1.7450814455618273
2.7837972995499247, -1.3304379577432615
2.785464244040673, 0.10993611211209631
2.7871311885314216, 1.6405022740282031
2.78879813302217, -3.400854786591298
2.7904650775129185, -2.4247073594623663
2.792132022003667, -1.207072901599436
2.7937989664944154, -2.579984713902128
2.795465910985164, -0.2056275486523615
2.7971328554759127, 0.11626855355749655
2.798799799966661, -0.2958493404643343
2.8004667444574096, -0.36682017193274685
2.802133688948158, 6.590296676525832
2.8038006334389065, 3.98495291801534
2.805467577929655, 0.47958264977139553
2.8071345224204034, -0.7776779983050659
2.808801466911152, -4.624532908531683
2.8104684114019003, 1.401484126990578
2.8121353558926487, 1.2904433194186284
2.813802300383397, 5.550546565661761
2.8154692448741456, 11.268688561216601
2.817136189364894, 3.656913320272149
2.8188031338556425, -3.6180415353055198
2.820470078346391, 2.6829726186432272
2.8221370228371394, 0.7019303507228216
2.823803967327888, -10.401359611094337
2.8254709118186363, 1.265492165285595
2.8271378563093847, 6.412041997143264
2.828804800800133, 1.0521859692185256
2.8304717452908816, 1.1802256457147846
2.83213868978163, -0.01205205181745328
2.8338056342723785, -0.006827473530360173
2.835472578763127, -3.028294593944225
2.8371395232538754, -2.0559785596600095
2.838806467744624, -0.09395494634712154
2.8404734122353723, -1.895623058178365
2.8421403567261208, 0.7174722969744202
2.843807301216869, 2.5122170566154907
2.8454742457076176, -1.63487891172135
2.847141190198366, -1.830985049725433
2.8488081346891145, 1.842880599114056
2.850475079179863, -0.9585552781268474
2.8521420236706114, -1.8219711989677128
2.85380896816136, 0.06578571656306886
2.8554759126521088, -3.57266812649886
2.857142857142857, -1.8452449218830511
2.8588098016336057, 1.6695905187356066
2.860476746124354, 0.20916396720246966
2.8621436906151025, -0.0085310460538085
2.863810635105851, 1.1365615725426566
2.8654775795965994, -0.5329800555936571
2.867144524087348, -2.1267808589697945
2.8688114685780963, -3.8629926169821545
2.8704784130688448, -4.597731534673097
2.872145357559593, 3.9952679184257454
2.8738123020503417, 3.7610110119404254
2.87547924654109, 1.9888538045426623
2.8771461910318386, 6.0316466739252
2.878813135522587, -2.9649447175295656
2.8804800800133354, -4.68277833085187
2.882147024504084, 2.0476558163236516
2.8838139689948323, -1.2849615495022932
2.885480913485581, -2.0405787893773866
2.8871478579763292, -1.7029792870866456
2.8888148024670777, -1.2625618723262173
2.890481746957826, 1.0952775762358944
2.8921486914485746, 1.3945830942484398
2.893815635939323, 6.092405518052527
2.8954825804300715, -1.0075412562867307
2.89714952492082, -4.774237324586954
2.8988164694115683, 0.6253556102531884
2.900483413902317, -1.5869778718282652
2.9021503583930652, -0.6148669789370744
2.9038173028838137, 1.5900520426976597
2.905484247374562, 4.32428154109441
2.9071511918653106, 0.7392705460795755
2.908818136356059, 0.4386368945873047
2.9104850808468075, 0.8922813355080083
2.912152025337556, -2.3223030153999233
2.913818969828305, 4.1081492583561685
2.9154859143190532, 0.9727397997685561
2.9171528588098017, -1.556541881621253
2.91881980330055, 4.26376219355788
2.9204867477912986, -1.0684600208428943
2.922153692282047, -1.4862006708985078
2.9238206367727955, 2.573861021932295
2.925487581263544, 0.7151859607440457
2.9271545257542924, -2.6645454867966025
2.928821470245041, -6.106080908265625
2.9304884147357892, -0.8559239306923156
2.9321553592265377, -1.8943172467754228
2.933822303717286, 1.903617221888216
2.9354892482080346, 6.413219750948572
2.937156192698783, -0.4729825420406839
2.9388231371895315, -2.1516416983487305
2.94049008168028, -10.024919767967406
2.9421570261710284, -2.618563144176287
2.943823970661777, 2.273230612441786
2.9454909151525253, -0.07522036897203921
2.9471578596432737, 6.488254317577484
2.948824804134022, 0.3734468195355243
2.9504917486247706, -0.32096002307122506
2.952158693115519, -2.3456166467875654
2.9538256376062675, 0.8583286229281497
2.955492582097016, 5.74824149375358
2.9571595265877644, -1.0088719558585548
2.958826471078513, -3.325838685222928
2.9604934155692613, -3.9774532200988157
2.9621603600600097, 4.458497424201645
2.963827304550758, 4.906747946180769
2.9654942490415066, 1.1158415130704677
2.967161193532255, 8.615184706163406
2.9688281380230035, 4.653411209737509
2.970495082513752, -4.874881805826873
2.9721620270045004, -0.9124178497159736
2.9738289714952493, 4.405430790356558
2.9754959159859977, 2.4548942784858525
2.977162860476746, 1.4138648989900564
2.9788298049674946, -5.1919013391148265
2.980496749458243, -1.8888168141047672
2.9821636939489915, -2.8062831737842298
2.98383063843974, -14.506397725627107
2.9854975829304884, -10.386483737258441
2.987164527421237, -4.366008978011667
2.9888314719119853, -1.012326309861673
2.9904984164027337, 1.706919117182108
2.992165360893482, 5.146861480616778
2.9938323053842306, 5.9734193060326195
2.995499249874979, 3.869781628813377
2.9971661943657275, -12.28186625561365
2.998833138856476, -7.034882329730871
3.0005000833472244, 0.1470951759680459
3.002167027837973, -1.6174489218866852
3.0038339723287213, 5.27132331076449
3.0055009168194697, -2.685317126477581
3.007167861310218, 10.829976350583548
3.0088348058009666, -17.776826839376696
3.010501750291715, 5.324880582158686
3.0121686947824635, 45.727189622015686
3.013835639273212, -0.7993754070190633
3.0155025837639604, -13.634341134242714
3.017169528254709, -1.8962731638321721
3.0188364727454573, 19.351275145394364
3.0205034172362057, -8.92826988501934
3.022170361726954, -15.53409902126742
3.0238373062177026, -4.465589934572558
3.025504250708451, -12.8399017986257
3.0271711951991995, 18.129167491414492
3.028838139689948, 1.793099679367078
3.0305050841806964, -18.557816985188516
3.0321720286714453, 0.8750833123423032
3.0338389731621938, 23.81343716362334
3.035505917652942, 9.199173709933586
3.0371728621436906, -3.725055518799394
3.038839806634439, 10.84154302022946
3.0405067511251875, -4.39670096644644
3.042173695615936, -16.924415104633283
3.0438406401066844, -4.573106613186401
3.045507584597433, 16.262151282679234
3.0471745290881813, 12.332483446392885
3.0488414735789298, -16.243322604161214
3.050508418069678, -9.050944479136248
3.0521753625604267, -6.163550853838673
3.053842307051175, -7.981740146029569
3.0555092515419235, 13.63569419811828
3.057176196032672, -6.5444817155961745
3.0588431405234204, -4.899907063790741
3.060510085014169, 14.373206835755582
3.0621770295049173, -8.002112612500309
3.0638439739956658, -11.965105074068424
3.065510918486414, -2.002680121260496
3.0671778629771627, -4.241212191928209
3.068844807467911, 6.769904979559749
3.0705117519586596, 14.818741849653257
3.072178696449408, -2.921808623274173
3.0738456409401564, -9.630069477958564
3.075512585430905, 0.833516134746986
3.0771795299216533, -1.5920014091462202
3.078846474412402, -8.884592507321521
3.0805134189031502, 7.770922041495407
3.0821803633938987, 14.144819430235454
3.083847307884647, 1.1880944739332393
3.0855142523753956, -12.78861597702061
3.087181196866144, 4.371165778004966
3.0888481413568925, 21.56766369032342
3.0905150858476413, -5.876389430301823
3.09218203033839, -1.6742298057349174
3.0938489748291382, -0.5776662303681098
3.0955159193198867, -10.59063213297947
3.097182863810635, -5.578135808077713
3.0988498083013836, 1.594599766750819
3.100516752792132, 19.374361619256312
3.1021836972828805, 7.615698072076287
3.103850641773629, -12.484479206076408
3.1055175862643773, -4.727852084530948
3.107184530755126, 2.977041953482116
3.1088514752458742, -7.508970043951166
3.1105184197366227, -4.247279449888378
3.112185364227371, 2.3346136890206775
3.1138523087181196, 11.716536656157919
3.115519253208868, 15.961157169075582
3.1171861976996165, -12.320143258992472
3.118853142190365, -16.441885354480142
3.1205200866811134, -6.539348605187294
3.122187031171862, -8.719606428562312
3.1238539756626102, 10.933190392798988
3.1255209201533587, 14.215402533834451
3.127187864644107, 0.05155615695746729
3.1288548091348556, 1.3679948400759923
3.130521753625604, -5.140996348882397
3.1321886981163525, 0.6586125655953552
3.133855642607101, 2.4781270210604234
3.1355225870978494, -2.0502158517730242
3.137189531588598, 2.0653084910251067
3.1388564760793463, -0.8921211166416985
3.1405234205700947, -4.260241652443478
3.142190365060843, -12.928355683072322
3.1438573095515916, -2.4717002344056183
3.14552425404234, -1.1172537450704958
3.1471911985330885, 2.3647356194968103
3.148858143023837, 8.65335557557287
3.150525087514586, -4.850672460306904
3.1521920320053343, 5.487545649416404
3.1538589764960827, 1.830288907911347
3.155525920986831, -2.58955311989151
3.1571928654775796, 4.4483388146697465
3.158859809968328, 3.3557824530227105
3.1605267544590765, 5.1146027338989
3.162193698949825, -2.78570463963137
3.1638606434405734, -9.054850936981717
3.165527587931322, -1.0970474939061197
3.1671945324220703, 7.997444141805395
3.1688614769128187, 5.414809751597412
3.170528421403567, 2.2383443296528602
3.1721953658943156, -3.1691215148337424
3.173862310385064, 3.5539277965663074
3.1755292548758125, 1.289384237298681
3.177196199366561, -3.199341530558678
3.1788631438573094, 5.919800028527179
3.180530088348058, -1.119556032368812
3.1821970328388063, -0.2289055560920943
3.1838639773295547, -11.20100083429574
3.185530921820303, -7.219645421360095
3.1871978663110516, 9.664690836366518
3.1888648108018, 3.810390383645801
3.1905317552925485, 1.6217948205456731
3.192198699783297, -2.2637523746852426
3.1938656442740454, -7.239419923478332
3.195532588764794, -13.4750024522185
3.1971995332555423, -3.939129790298194
3.1988664777462907, -0.7384552431470688
3.200533422237039, 2.4002314909827653
3.2022003667277876, 3.107667076109249
3.203867311218536, -1.3786304821941027
3.2055342557092845, 18.21693067978313
3.207201200200033, 4.620595762921132
3.208868144690782, -8.34445555800535
3.2105350891815303, -1.5970449510416058
3.2122020336722787, -8.62275333413851
3.213868978163027, -0.9259776775290551
3.2155359226537756, 7.256823881147421
3.217202867144524, 5.789045457675247
3.2188698116352725, 4.145245271827303
3.220536756126021, -2.300342422452227
3.2222037006167694, -4.084988659590896
3.223870645107518, -2.084762321267231
3.2255375895982663, -0.5085529687895912
3.2272045340890148, 3.4766187817176037
3.228871478579763, 0.8722847702876722
3.2305384230705116, -1.6562701914518834
3.23220536756126, -0.8703432717694113
3.2338723120520085, 1.4051229097176392
3.235539256542757, -4.61230268787455
3.2372062010335054, -0.4877625533111758
3.238873145524254, 11.778606772072083
3.2405400900150023, -2.470959142519788
3.2422070345057508, -7.606918815728919
3.243873978996499, 1.3756376268925106
3.2455409234872477, -0.7508267775913309
3.247207867977996, -2.9560967177343
3.2488748124687445, 3.2940961468268206
3.250541756959493, 3.5814262251423146
3.2522087014502414, 2.4322399480324934
3.25387564594099, 5.057434738612869
3.2555425904317383, 0.562933605079949
3.2572095349224868, 2.527473745603288
3.258876479413235, -1.3886341735090313
3.2605434239039837, -5.9869502041692115
3.262210368394732, 0.5383059744787743
3.2638773128854806, 0.5055392133380776
3.265544257376229, -3.672683305839117
3.267211201866978, -2.0134114435520294
3.2688781463577263, -0.03590966577538923
3.270545090848475, -4.552586106127399
3.2722120353392232, 0.4241294963223518
3.2738789798299717, 3.8945167903082445
3.27554592432072, 0.6765500081120256
3.2772128688114686, 1.338630335546202
3.278879813302217, -1.2978370533352885
3.2805467577929655, -2.22579138916627
3.282213702283714, -2.486755901681156
3.2838806467744623, 1.1653525481155507
3.285547591265211, 1.1591958885367022
3.2872145357559592, -2.549813994961278
3.2888814802467077, -0.28750694507809404
3.290548424737456, 0.5620429214069991
3.2922153692282046, 0.2430486533378572
3.293882313718953, 0.4548572973692696
3.2955492582097015, 2.795500460986678
3.29721620270045, 1.1191375670903785
3.2988831471911984, -1.6199422421351588
3.300550091681947, -2.4178341903916403
3.3022170361726952, -2.0211920072131746
3.3038839806634437, 0.894714237056134
3.305550925154192, -1.4382447062887962
3.3072178696449406, -0.8873952209880074
3.308884814135689, 4.103102545360297
3.3105517586264375, 1.2821038793919044
3.312218703117186, -2.4088503750190804
3.3138856476079344, -0.5675640834457624
3.315552592098683, 0.03180934366119756
3.3172195365894313, -0.4263690451003417
3.3188864810801797, 1.4475884921067996
3.320553425570928, 3.699196997919959
3.3222203700616766, 1.871211250409482
3.323887314552425, 2.795064597910648
3.3255542590431735, 3.3330244448869
3.3272212035339224, 0.8543153239524982
3.328888148024671, 0.8446593821107256
3.3305550925154193, -1.1071236648484815
3.3322220370061677, 0.38626162473790404
3.333888981496916, -1.0431319211343473
3.3355559259876646, -3.09293656396416
3.337222870478413, -1.8865130056238522
3.3388898149691615, -0.6566773436165029
3.34055675945991, -2.573148025100567
3.3422237039506584, -8.353715663459615
3.343890648441407, -3.0691491535896596
3.3455575929321553, 0.8051954357621369
3.3472245374229037, 1.6142576807799034
3.348891481913652, 3.852292715157999
3.3505584264044006, 2.4264353213928223
3.352225370895149, 0.8479969590333265
3.3538923153858975, -0.7016808923470396
3.355559259876646, 0.8575795700563226
3.3572262043673944, -0.8358530276650489
3.358893148858143, -0.06593840064115597
3.3605600933488913, 1.9718607739682976
3.3622270378396397, 1.1150421643953097
3.363893982330388, 0.6798971332086196
3.3655609268211366, 0.4303348556412029
3.367227871311885, 2.248411189754201
3.3688948158026335, -3.0911319841101594
3.370561760293382, -0.36194865475756943
3.3722287047841304, 2.572649433716598
3.373895649274879, -1.1750360816055063
3.3755625937656273, 0.41514725417678844
3.3772295382563757, -2.173224414993171
3.378896482747124, 0.37764440641849895
3.3805634272378726, 0.7193832263630338
3.382230371728621, 4.346351716122142
3.3838973162193695, 4.624362716913026
3.3855642607101184, 2.182746398540126
3.387231205200867, 5.665609181261681
3.3888981496916153, -6.223718716511492
3.3905650941823637, -9.08324606404322
3.392232038673112, -2.9091739772729364
3.3938989831638606, -3.6306023514944474
3.395565927654609, 0.1794414089440095
3.3972328721453575, 4.937624915489543
3.398899816636106, 2.163815252194126
3.4005667611268544, 1.492203851026186
3.402233705617603, -1.80938536673063
3.4039006501083513, -5.089062058061864
3.4055675945990997, -7.622934668944685
3.407234539089848, -5.866644819975389
3.4089014835805966, 3.759449989912584
3.410568428071345, 2.201767510611466
3.4122353725620935, 5.267431957640751
3.413902317052842, -6.737463529822682
3.4155692615435904, -4.2501722041942065
3.417236206034339, 3.5082018914075954
3.4189031505250873, -3.941455648739323
3.4205700950158358, -2.927435129385644
3.422237039506584, -4.843392205685127
3.4239039839973326, 18.934029192081905
3.425570928488081, 0.18061822745262468
3.4272378729788295, -2.099994547833103
3.428904817469578, 21.39692281505407
3.4305717619603264, -0.29397304052522255
3.432238706451075, -4.9425745777449
3.4339056509418233, -8.82021672258734
3.4355725954325718, 0.24272797796790613
3.43723953992332, 6.362036433252516
3.4389064844140687, 12.797402939932512
3.440573428904817, 6.505213471317344
3.4422403733955655, -6.602840493205116
3.4439073178863144, -8.047753991920933
3.445574262377063, -7.291687424998228
3.4472412068678113, 8.962542183358797
3.4489081513585598, -12.444679062690296
3.450575095849308, -14.423839071742407
3.4522420403400567, 5.008877563798853
3.453908984830805, 7.588181566233821
3.4555759293215536, -5.6511781897134
3.457242873812302, -0.35540866587773434
3.4589098183030504, 12.926580825980876
3.460576762793799, -15.59665053696638
3.4622437072845473, 3.0056312337689173
3.463910651775296, 8.671370078055173
3.4655775962660442, -13.332498591725656
3.4672445407567927, -4.554645538878448
3.468911485247541, 8.825936652099651
3.4705784297382896, 27.85385263701808
3.472245374229038, 4.310632395706107
3.4739123187197865, -29.93021452091941
3.475579263210535, -17.05950075983136
3.4772462077012833, 24.263203325003204
3.478913152192032, 13.541921523536796
3.4805800966827802, -7.391609085041917
3.4822470411735287, 10.925740879170615
3.483913985664277, -25.690416607218047
3.4855809301550256, -13.125324956073964
3.487247874645774, 10.58456756409798
3.4889148191365225, -8.800908319082668
3.490581763627271, 22.568915710953597
3.4922487081180194, 14.858404204692812
3.493915652608768, -10.80635311181456
3.4955825970995162, -20.946973333128515
3.4972495415902647, -10.852221714169964
3.498916486081013, 2.192482423019449
3.5005834305717616, 2.9765817504485232
3.5022503750625105, 6.742494604268275
3.503917319553259, 5.2658391961629185
3.5055842640440074, 5.031683020686207
3.507251208534756, -12.182199897013325
3.5089181530255042, 2.1127175394161215
3.5105850975162527, -7.266989667212485
3.512252042007001, 0.747381450535872
3.5139189864977496, 37.35328489509983
3.515585930988498, 4.527185417008361
3.5172528754792465, -18.90582170722138
3.518919819969995, -4.938560646875071
3.5205867644607434, 18.26477991685291
3.522253708951492, 11.125072854339823
3.5239206534422403, -6.030411427544955
3.5255875979329887, -11.297937371503162
3.527254542423737, -11.880908823212282
3.5289214869144856, -6.068425451783719
3.530588431405234, 3.5172036849557737
3.5322553758959825, 7.003288268703738
3.533922320386731, -1.0281953475050667
3.5355892648774794, 7.05726492181746
3.537256209368228, -8.625275546533292
3.5389231538589763, -13.863217037406658
3.5405900983497247, -12.28850647137832
3.542257042840473, -5.780774844484621
3.5439239873312216, 22.9971587861847
3.54559093182197, 8.301311858072399
3.5472578763127185, -0.8098071964307074
3.548924820803467, -14.534939969065405
3.5505917652942154, -3.834756313541326
3.552258709784964, 5.855895379692534
3.5539256542757123, -12.217276930700825
3.5555925987664607, 30.5782269042709
3.557259543257209, 23.004481445606267
3.5589264877479576, -14.404695061130324
3.560593432238706, -12.04653114561039
3.562260376729455, -1.2758021776869362
3.5639273212202034, 5.862802900529219
3.565594265710952, -2.269625036736036
3.5672612102017003, 4.957860092625134
3.5689281546924487, -1.5537538119462988
3.570595099183197, -7.64334185292682
3.5722620436739456, -2.161446408881368
3.573928988164694, 0.04069169219527469
3.5755959326554425, 9.000016013097783
3.577262877146191, 9.894146903756354
3.5789298216369394, -14.911652089764186
3.580596766127688, -26.224921820189515
3.5822637106184363, -0.7461869531691472
3.5839306551091847, -12.421435692242188
3.585597599599933, -1.4089939617571239
3.5872645440906816, 35.26202060195034
3.58893148858143, 0.13528153264242526
3.5905984330721785, -12.172043061328072
3.592265377562927, 4.887681326740026
3.5939323220536754, -7.700363878326265
3.595599266544424, -2.1742125082615287
3.5972662110351723, 10.7220758796825
3.5989331555259207, 6.892136498747552
3.600600100016669, -0.828182566597208
3.6022670445074176, 0.9911188217843678
3.603933988998166, 0.7463208443421343
3.6056009334889145, -2.9891011466232538
3.607267877979663, 1.5320167643654414
3.6089348224704114, 4.859923208243893
3.61060176696116, 6.567587704958519
3.6122687114519083, 5.499600528393303
3.6139356559426568, 5.8204249194168
3.615602600433405, 4.957645060737438
3.6172695449241536, 1.1875329499089873
3.618936489414902, -5.683713179781798
3.620603433905651, -10.479252763930473
3.6222703783963994, -5.3194769989476764
3.623937322887148, -0.3330539936461796
3.6256042673778963, -2.861878001691748
3.6272712118686448, 0.5100912166060203
3.628938156359393, 7.724301187702153
3.6306051008501417, -1.997284342189504
3.63227204534089, -6.597743228223506
3.6339389898316385, -2.8237050385193734
3.635605934322387, -0.9313522656437545
3.6372728788131354, 0.12404401242269358
3.638939823303884, -2.414878783629801
3.6406067677946323, -0.03801050811928497
3.6422737122853808, 0.8230032692341682
3.643940656776129, -4.214479209381685
3.6456076012668777, -3.296662033654318
3.647274545757626, -0.36365622640236483
3.6489414902483746, -1.778177239957719
3.650608434739123, -0.5136582360985454
3.6522753792298714, -2.545766613216693
3.65394232372062, 2.242686485562535
3.6556092682113683, 5.537571337529952
3.657276212702117, 1.7783590484481366
3.6589431571928652, -0.373772110225431
3.6606101016836137, -2.0170847599026454
3.662277046174362, -0.16413998751183434
3.6639439906651106, -0.18568822805009472
3.665610935155859, 3.198376298937305
3.6672778796466075, 2.3280301270266204
3.668944824137356, 4.649072493206079
3.6706117686281043, 0.6681452923510041
3.672278713118853, -2.946044640006683
3.6739456576096012, 6.02123316214697
3.6756126021003497, 1.2668065658791368
3.677279546591098, -0.44695539344816515
3.678946491081847, 2.188868263600669
3.6806134355725955, -2.642079661962515
3.682280380063344, -2.1957693093642376
3.6839473245540924, 3.4395308476390882
3.685614269044841, 1.1831151582244652
3.6872812135355892, -1.2788946248614823
3.6889481580263377, -0.5393913816412844
3.690615102517086, -0.9243319141806674
3.6922820470078346, -0.19998821084915241
3.693948991498583, -2.6328738161473497
3.6956159359893315, -3.6492174406360682
3.69728288048008, -0.5091896640651404
3.6989498249708284, 1.2127863323306283
3.700616769461577, -0.5971206573726108
3.7022837139523253, -1.5851691697735892
3.7039506584430737, 0.13336625107412425
3.705617602933822, 2.910441527162053
3.7072845474245706, -0.21888701700528412
3.708951491915319, -2.4080130758380625
3.7106184364060675, -1.5099327927311386
3.712285380896816, 1.322469000606398
3.7139523253875644, -1.590243801674432
3.715619269878313, -7.020892683894173
3.7172862143690613, -1.3504534249342934
3.7189531588598097, -0.5046733331392765
3.720620103350558, 0.24320808731058263
3.7222870478413066, 0.8833647290921436
3.723953992332055, 0.1402050261978699
3.7256209368228035, 1.2258024514673727
3.727287881313552, 1.2282529214898021
3.7289548258043004, -1.360100551353759
3.730621770295049, -1.623930404430535
3.7322887147857973, 3.2308969388717603
3.7339556592765457, 2.478077216835592
3.735622603767294, 6.052854801557944
3.7372895482580426, 6.483856408287149
3.7389564927487915, 3.092005253377394
3.74062343723954, 2.401421701376523
3.7422903817302884, 1.2779387094861128
3.743957326221037, 2.276189233899782
3.7456242707117853, 2.5137386288087438
3.7472912152025337, 4.159871639247307
3.748958159693282, 5.708397937062758
3.7506251041840306, 7.085226980798665
3.752292048674779, 3.7983972096307754
3.7539589931655275, 1.0555173120459878
3.755625937656276, 0.7536530804775377
3.7572928821470244, -7.950898390382232
3.758959826637773, -19.429302852134377
3.7606267711285213, -18.967038366549083
3.7622937156192697, -9.739204099975266
3.763960660110018, -8.023589296205788
3.7656276046007666, -6.159253265852693
3.767294549091515, -1.141685425601481
3.7689614935822635, 0.3307866314861245
3.770628438073012, 1.665496928184738
3.7722953825637604, 3.758986366594203
3.773962327054509, 2.3859350824380092
3.7756292715452573, -0.8339204769424082
3.7772962160360057, 2.004277435107487
3.778963160526754, 0.6035181027320546
3.7806301050175026, 2.506037573784455
3.782297049508251, 7.1207381500805464
3.7839639939989995, 3.891932020160904
3.785630938489748, 5.744714420584906
3.7872978829804964, 4.1945961530941815
3.788964827471245, 1.464552296162882
3.7906317719619933, 1.483000535159848
3.7922987164527417, 1.2345255925476737
3.79396566094349, 0.8466989105275418
3.7956326054342386, 0.9961663348274681
3.7972995499249875, 1.3667146713286757
3.798966494415736, -0.29259109381967097
3.8006334389064844, 3.087715950998648
3.802300383397233, 0.36381810584180196
3.8039673278879813, -2.994934656322913
3.8056342723787298, -1.9990843911098928
3.807301216869478, 0.07352842066257181
3.8089681613602266, 0.6762123654537471
3.810635105850975, -5.767480471232565
3.8123020503417235, -3.558068623564832
3.813968994832472, 0.43255847981684137
3.8156359393232204, -2.6751584547049614
3.817302883813969, -1.351578537029758
3.8189698283047173, 4.322872153551114
3.8206367727954658, 1.875165182337751
3.822303717286214, -0.5832264371241817
3.8239706617769627, -2.8875731218084457
3.825637606267711, -4.410610204353721
3.8273045507584595, 3.3456747876796036
3.828971495249208, -2.157914395559577
3.8306384397399564, -3.462768842694225
3.832305384230705, -0.8060275316403811
3.8339723287214533, -2.3600748298869956
3.8356392732122018, 7.657192206894008
3.83730621770295, 5.6300783012061455
3.8389731621936987, -2.7971865776658165
3.840640106684447, -1.462968141299758
3.8423070511751956, 3.742379537642572
3.843973995665944, 2.448854892391556
3.8456409401566924, -5.863680132994559
3.847307884647441, 1.4931142564818003
3.8489748291381893, 7.223049442796303
3.850641773628938, -4.198268526728794
3.8523087181196862, 12.861410912413996
3.8539756626104347, 7.462908647586634
3.8556426071011836, -14.012639097206215
3.857309551591932, 5.459812438447544
3.8589764960826805, 9.676844754389574
3.860643440573429, 0.6195653139242248
3.8623103850641773, -19.826328236772657
3.863977329554926, -12.375412366013208
3.8656442740456742, -3.167155973667433
3.8673112185364227, -4.882488527534995
3.868978163027171, -0.02238827043215097
3.8706451075179196, 2.8671505897157896
3.872312052008668, 30.734169146126796
3.8739789964994165, -5.092166041460085
3.875645940990165, -20.05683238963061
3.8773128854809134, -4.44284063016887
3.878979829971662, -7.779763686958797
3.8806467744624102, 1.2805738971317933
3.8823137189531587, -5.855291872827296
3.883980663443907, 16.47660659845379
3.8856476079346556, 7.463002776114151
3.887314552425404, -9.68777738773736
3.8889814969161525, 2.189331073349245
3.890648441406901, 4.690234497820279
3.8923153858976494, 8.570638112866602
3.893982330388398, -1.667114919997765
3.8956492748791463, -9.030145141479212
3.8973162193698947, -6.092084124451439
3.898983163860643, -8.2583069308061
3.9006501083513916, 3.1371148695953868
3.90231705284214, 18.14082261407493
3.9039839973328885, 4.8657876073965705
3.905650941823637, -1.726903918241991
3.9073178863143854, -10.91408531571313
3.908984830805134, 2.0977029136385976
3.9106517752958823, 16.9065690536156
3.9123187197866307, -21.521441838549258
3.913985664277379, 2.4892947120130486
3.915652608768128, 28.248158021159185
3.9173195532588765, -9.001434214828304
3.918986497749625, -2.7645146599820736
3.9206534422403734, -1.4044872511727868
3.922320386731122, -3.737726586162424
3.9239873312218703, 15.440312860361022
3.9256542757126187, 0.15489439251090964
3.927321220203367, -13.332970304885038
3.9289881646941156, -8.220258014626063
3.930655109184864, 3.352496509747624
3.9323220536756125, 7.0640623295276255
3.933988998166361, -1.4854728864606679
3.9356559426571094, -7.016447137212099
3.937322887147858, -14.863059003340304
3.9389898316386063, -5.464342005406992
3.9406567761293547, 12.194308289372213
3.942323720620103, 17.72511656536897
3.9439906651108516, 1.6564985808233263
3.9456576096016, -18.428879498704134
3.9473245540923485, -6.524601712228682
3.948991498583097, 8.123068400024646
3.9506584430738454, 18.57406051622074
3.952325387564594, 3.4626052252577337
3.9539923320553423, -21.143681672746922
3.9556592765460907, -0.3154506062373361
3.957326221036839, -2.7708222536809544
3.9589931655275876, -4.120349951404322
3.960660110018336, 10.605780997447159
3.9623270545090845, -8.851089401459562
3.963993998999833, -5.124725188780671
3.9656609434905814, 4.637918128974382
3.96732788798133, -1.1243963661452203
3.9689948324720783, 0.5423375484406678
3.9706617769628267, 1.4137200185342116
3.972328721453575, -15.940822558450304
3.973995665944324, -1.6660739885082618
3.9756626104350725, 31.30463053464817
3.977329554925821, 4.5998788505017725
3.9789964994165694, -8.759376604078653
3.980663443907318, -2.6558206481915745
3.9823303883980663, 1.656980351844708
3.9839973328888147, 2.8451350061573155
3.985664277379563, -4.7670285447927245
3.9873312218703116, 11.432985477035968
3.98899816636106, 12.64780134613552
3.9906651108518085, -9.62245865892196
3.992332055342557, -17.320191172766627
3.9939989998333054, -4.188127259320897
3.995665944324054, -0.7450794713269437
3.9973328888148023, 1.7131431202685459
3.9989998333055508, 6.439217614454727
4.000666777796299, 0.9343338960010066
4.002333722287047, 2.389241361175584
4.004000666777796, 10.267729765847452
4.005667611268545, 9.283631179372545
4.007334555759293, -3.4863045061887106
4.009001500250042, -7.737531178570947
4.01066844474079, -7.468416059579601
4.012335389231539, -2.6079311025623078
4.014002333722287, 3.2611066411454006
4.015669278213036, 2.660562175248271
4.017336222703784, 1.7151181472482162
4.0190031671945325, -5.003196753219729
4.0206701116852805, -1.043381925608041
4.022337056176029, 5.296700791855375
4.024004000666777, -4.925004715237534
4.025670945157526, 0.44638893695103943
4.027337889648274, 7.165128358944262
4.029004834139023, -4.655175031562424
4.030671778629771, -6.695982841214484
4.03233872312052, -6.0715681519769795
4.034005667611268, -7.471039615623077
4.035672612102017, -3.8133513254279974
4.037339556592765, 5.831665324500061
4.039006501083514, 7.156431185992965
4.040673445574262, 1.1732068729881642
4.042340390065011, 3.8993493114828386
4.044007334555759, 0.5090206339760642
4.045674279046508, -2.5233437163563184
4.047341223537256, -4.192830664770581
4.049008168028005, -6.062429957320612
4.050675112518753, -0.9504816757441911
4.0523420570095015, 0.3239528230387074
4.0540090015002495, 0.2208571123145998
4.055675945990998, 4.679964530940589
4.057342890481746, 9.300546514717084
4.059009834972495, 3.0531190867354083
4.060676779463243, 1.266626340594227
4.062343723953992, 1.4819732912188845
4.064010668444741, -2.8879423876453485
4.065677612935489, 1.9760706019842602
4.067344557426238, -3.137714673380592
4.069011501916986, -2.4961364537423947
4.070678446407735, 1.5757507019925527
4.072345390898483, -2.9945653295071377
4.074012335389232, 0.3175175388971405
4.07567927987998, 3.4285817399129117
4.077346224370729, 4.119690599135071
4.079013168861477, 0.7652950899999272
4.0806801133522255, -1.044982683493164
4.0823470578429735, -2.935066494852675
4.084014002333722, -0.2597857739574596
4.08568094682447, 1.4163215689932405
4.087347891315219, -0.6316713490245534
4.089014835805967, -1.0934113566830193
4.090681780296716, -1.243706127884123
4.092348724787464, 6.575407554579581
4.094015669278213, 1.8855080412855878
4.095682613768961, -1.6120674243757167
4.09734955825971, 2.814061753351701
4.099016502750458, -1.757983213128177
4.100683447241207, -5.346058486154481
4.102350391731955, -1.994267632431253
4.104017336222704, -1.473372393463113
4.105684280713452, -3.434427314259526
4.107351225204201, 1.5183364540358664
4.109018169694949, 0.8657303876577349
4.1106851141856975, -0.348852209209983
4.1123520586764455, -0.07449899995650566
4.114019003167194, -1.1204369050953136
4.115685947657942, -1.1707315320917744
4.117352892148691, -1.887194567769043
4.119019836639439, -3.3055268432705436
4.120686781130188, -1.7474556183956724
4.122353725620937, 1.630907950355725
4.124020670111685, 0.23178744977158594
4.125687614602434, 1.705187788533948
4.127354559093182, 2.0422292549716223
4.129021503583931, -0.07820295518282816
4.130688448074679, -0.25931572853048457
4.132355392565428, 3.227293458780133
4.134022337056176, 0.43196310294157725
4.135689281546925, -1.463881845419501
4.137356226037673, 2.2340045956731887
4.1390231705284215, -2.2314477495913643
4.1406901150191695, -0.7618338597076786
4.142357059509918, 1.8852572849966482
4.144024004000666, 0.4816164608301773
4.145690948491415, 0.9028222171578635
4.147357892982163, 1.9429821341401985
4.149024837472912, 0.886104705681179
4.15069178196366, -0.44184277750284806
4.152358726454409, 1.9262103314504357
4.154025670945157, 0.24445860420070833
4.155692615435906, 0.1163713453933839
4.157359559926654, 1.9221953205658926
4.159026504417403, 1.5342445562441873
4.160693448908151, -0.47166424645722316
4.1623603933989, -4.7679444514888445
4.164027337889648, 0.024761864572176107
4.165694282380397, 2.2289562444365516
4.167361226871145, 0.40784297860656404
4.1690281713618935, 0.5002538405439817
4.1706951158526415, -4.279470711630107
4.17236206034339, 0.9680146116612429
4.174029004834138, 1.0566026060052163
4.175695949324887, -2.4930724701946643
4.177362893815635, -1.4564107600506042
4.179029838306384, -6.026360859568463
4.180696782797133, -1.69506852339218
4.182363727287881, 3.2491073484304005
4.18403067177863, -0.5807416654902822
4.185697616269378, -1.7264646168315596
4.187364560760127, 0.8944629695917252
4.189031505250875, 2.0624660989201526
4.190698449741624, 0.6611814539114622
4.192365394232372, -0.29569719896906776
4.194032338723121, 2.5837219869623116
4.195699283213869, -0.6593697074042634
4.1973662277046175, 1.4885263506196194
4.1990331721953655, 2.12886326726004
4.200700116686114, -2.7908458054685785
4.202367061176862, 2.1922846579609674
4.204034005667611, 0.6368085504163614
4.205700950158359, 1.5750389876240707
4.207367894649108, 3.754089759160682
4.209034839139856, 2.22513370642483
4.210701783630605, -1.3665564735242415
4.212368728121353, -2.9849425654816892
4.214035672612102, -1.598433047657296
4.21570261710285, -2.211270425413706
4.217369561593599, 2.188120472177636
4.219036506084347, 1.4127638599219763
4.220703450575096, -1.918810350260649
4.222370395065844, -3.1884192117080126
4.224037339556593, -1.894239133300664
4.225704284047341, -0.024228925711830218
4.2273712285380896, 1.2292286431215511
4.2290381730288376, 0.9458256203346204
4.2307051175195864, -0.6131096409155411
4.2323720620103344, -0.218599416622328
4.234039006501083, 1.5155965281498975
4.235705950991831, 2.5285447175946056
4.23737289548258, -0.41689184977655
4.239039839973329, 1.1969118329218702
4.240706784464077, -0.39794457627324786
4.242373728954826, -3.2435860228247124
4.244040673445574, -6.378256836489595
4.245707617936323, -6.843952880727343
4.247374562427071, -3.2996076955931657
4.24904150691782, -2.643790723246947
4.250708451408568, 14.872351627118416
4.252375395899317, 11.355860570703557
4.254042340390065, -1.87025676142094
4.255709284880814, 11.199250868717664
4.257376229371562, -7.575724516341358
4.2590431738623105, -8.030177806060717
4.2607101183530585, 5.66957753442184
4.262377062843807, -18.20477539132186
4.264044007334555, -10.271356237540889
4.265710951825304, 1.8586748262239823
4.267377896316052, 12.414982249250144
4.269044840806801, 17.372511715265517
4.270711785297549, 10.549853001250185
4.272378729788298, 2.491854442601878
4.274045674279046, -15.933996640550092
4.275712618769795, 1.2100078659446316
4.277379563260543, 0.09355834399289398
4.279046507751292, -11.691921009363977
4.28071345224204, -3.0370470581450575
4.282380396732789, 4.403184480194407
4.284047341223537, 1.1100143825894522
4.285714285714286, -8.921827464288333
4.287381230205034, -3.072645845817607
4.2890481746957825, 10.031581913551056
4.2907151191865305, 14.628793145822701
4.292382063677279, -12.815139737892748
4.294049008168027, -4.8194696772348
4.295715952658776, 11.705300288231935
4.297382897149525, -4.674296564013937
4.299049841640273, -1.0630659626524377
4.300716786131022, -6.312623063644324
4.30238373062177, -7.722379939602993
4.304050675112519, 9.894606635038611
4.305717619603267, -1.937573241949707
4.307384564094016, -1.3191152162042519
4.309051508584764, 19.48585721009028
4.310718453075513, -11.060309367041423
4.312385397566261, -6.429839327065203
4.31405234205701, 8.72793428687467
4.315719286547758, -3.806314518876322
4.3173862310385065, 16.20686038836291
4.3190531755292545, -9.828235263148617
4.320720120020003, -14.443495755471861
4.322387064510751, 11.328280491813612
4.3240540090015, -8.066778297827419
4.325720953492248, 5.50656621952367
4.327387897982997, 12.483038981416819
4.329054842473745, -3.4507208869388695
4.330721786964494, 2.353844314973563
4.332388731455242, -3.694692471964582
4.334055675945991, -7.328961393442032
4.335722620436739, -2.3339994662863077
4.337389564927488, -2.498801359606215
4.339056509418236, 5.5957808102751585
4.340723453908985, 4.832229378760271
4.342390398399733, -1.8562608023026996
4.344057342890482, 10.569437409223923
4.34572428738123, 3.4430705273386706
4.3473912318719785, -23.45800030297457
4.3490581763627265, -4.301055063413829
4.350725120853475, 14.52248325401927
4.352392065344223, -12.837653253341795
4.354059009834972, -0.7400489771447001
4.355725954325721, 17.089343106083447
4.357392898816469, -2.470321924505298
4.359059843307218, -9.318760698518279
4.360726787797966, -13.800898282150825
4.362393732288715, -0.9812222940750606
4.364060676779463, 8.281218618463413
4.365727621270212, -4.971304810854837
4.36739456576096, 2.9402624635735224
4.369061510251709, 11.502769895151179
4.370728454742457, -2.550534326602114
4.372395399233206, 2.1540300154585212
4.374062343723954, 1.122407709455855
4.3757292882147025, -6.308749896726187
4.3773962327054505, 6.231825341979551
4.379063177196199, -3.1009285508297397
4.380730121686947, -9.065608836375596
4.382397066177696, -4.304120433764167
4.384064010668444, 5.235771582272164
4.385730955159193, 13.138068908819912
4.387397899649941, -0.985881670600615
4.38906484414069, -6.627801617942671
4.390731788631438, 2.081761155047227
4.392398733122187, 0.5673802927655739
4.394065677612935, -2.7499470131439883
4.395732622103684, 6.858164004845409
4.397399566594432, 6.375677048357481
4.399066511085181, 5.31167310919753
4.400733455575929, 6.380203403368843
4.402400400066678, -2.0764309210478746
4.404067344557426, 1.2423275968409762
4.4057342890481745, 5.637813624276061
4.4074012335389225, -5.026128480316532
4.409068178029671, -7.624915940882961
4.410735122520419, -0.405611986650412
4.412402067011168, 0.05870622979071083
4.414069011501916, -3.8895363408152654
4.415735955992665, -6.36532734299181
4.417402900483414, -1.4968982938977256
4.419069844974162, -0.9198585731694595
4.420736789464911, -0.26998107893509715
4.422403733955659, 0.3942307252012638
4.424070678446408, -1.2547064351020571
4.425737622937156, 1.5740677375579484
4.427404567427905, -3.472998903939441
4.429071511918653, -4.4090616725126495
4.430738456409402, -2.905400865467435
4.43240540090015, -0.6154402652913766
4.434072345390899, 2.502288988161531
4.435739289881647, -0.11835093815671094
4.4374062343723955, 1.8114352138482561
4.4390731788631435, 1.0273761567600685
4.440740123353892, -0.940960094491038
4.44240706784464, 2.8114119360254017
4.444074012335389, 2.2380940794674866
4.445740956826137, 0.27812784453109707
4.447407901316886, 3.2945661044384114
4.449074845807634, 1.5206533467447385
4.450741790298383, 2.139665881422851
4.452408734789131, 2.659897857779822
4.45407567927988, 0.6772182010146701
4.455742623770628, -4.1906590778891175
4.457409568261377, -7.1575816927915366
4.459076512752125, 0.03435514190498723
4.460743457242874, -1.3623557863285296
4.462410401733622, 1.3247655252455512
4.464077346224371, 3.1449610413877735
4.465744290715119, 1.5989131716433163
4.4674112352058675, 1.5031870704214882
4.4690781796966155, -1.2582377731242727
4.470745124187364, -0.14177369576072918
4.472412068678112, -3.342047059731806
4.474079013168861, 0.3128577614614896
4.47574595765961, 1.3113410581614122
4.477412902150358, 0.9016726349167177
4.479079846641107, 1.732386840766156
4.480746791131855, -1.4001127148998491
4.482413735622604, 1.9957173963387986
4.484080680113352, -1.6464832871114425
4.485747624604101, -2.81229144434172
4.487414569094849, 3.1082062571440296
4.489081513585598, 1.3845462647609519
4.490748458076346, -1.1772078096895735
4.492415402567095, 0.6460167387046676
4.494082347057843, 1.4703181901244213
4.4957492915485915, 0.017298335611784316
4.4974162360393395, -1.9645866473630873
4.499083180530088, -1.4685169718726374
4.500750125020836, 0.5126777015934523
4.502417069511585, -0.7899414866438734
4.504084014002333, 0.908216886256807
4.505750958493082, 0.058942909267886034
4.50741790298383, 1.2467878131833177
4.509084847474579, 2.0586151345471433
4.510751791965327, -4.4167052095429264
4.512418736456076, 1.1538094631395013
4.514085680946824, 1.0083206413022137
4.515752625437573, -0.7432723454081476
4.517419569928321, 1.6332681853409319
4.51908651441907, -2.725994519897888
4.520753458909818, -2.4465810672083315
4.522420403400567, -1.8516953649664758
4.524087347891315, -1.1923132266456251
4.5257542923820635, -4.109698086690072
4.5274212368728115, -0.6409147549625152
4.52908818136356, 2.5822751109427493
4.530755125854308, 0.10646242819027085
4.532422070345057, 4.351968789016118
4.534089014835806, 2.920303834992921
4.535755959326554, -0.6692179701632481
4.537422903817303, 1.6846299235659967
4.539089848308051, -2.3852080972768093
4.5407567927988, -3.670495568127934
4.542423737289548, 5.239283425746736
4.544090681780297, 1.8480510850622376
4.545757626271045, 0.1707111535826431
4.547424570761794, 2.294076895413667
4.549091515252542, -1.679552422541621
4.550758459743291, -0.24234004224468242
4.552425404234039, 2.578109771235181
4.5540923487247875, 2.3277569185682307
4.5557592932155355, 1.8493726047644232
4.557426237706284, 2.059678815636489
4.559093182197032, -1.918531705620784
4.560760126687781, -0.03948320233614666
4.562427071178529, -0.7323894072103974
4.564094015669278, -3.002827836984837
4.565760960160026, -3.5705087702377307
4.567427904650775, -5.87684760282298
4.569094849141523, -0.4127515822443326
4.570761793632272, -1.6913740205122725
4.57242873812302, 4.736946695398174
4.574095682613769, 5.552290796889608
4.575762627104517, -3.146467200471566
4.577429571595266, 0.8653689607312992
4.579096516086014, -3.083080094492667
4.580763460576763, -2.7571270797474012
4.582430405067511, -2.0638830235959276
4.5840973495582595, -0.34919647970401735
4.5857642940490075, 2.9471580705482747
4.587431238539756, -4.95779725694763
4.589098183030504, -2.013255160140197
4.590765127521253, 0.38642897384820474
4.592432072012002, -0.933944198353956
4.59409901650275, 4.685580351868177
4.595765960993499, 8.165655565030615
4.597432905484247, 3.9670122331175373
4.599099849974996, -0.7482374174876858
4.600766794465744, -2.739545294056399
4.602433738956493, -1.6992807535929324
4.604100683447241, 1.574096299486569
4.60576762793799, -1.6818270753607254
4.607434572428738, 3.8820441792186346
4.609101516919487, 0.3416254418261654
4.610768461410235, -6.867327480866608
4.6124354059009836, 3.4209708491067135
4.6141023503917316, 0.27603421200381373
4.6157692948824804, 0.5881171632591107
4.6174362393732284, 2.290726867671769
4.619103183863977, -7.160859401359216
4.620770128354725, -0.809900356038519
4.622437072845474, 3.1389355569456154
4.624104017336222, -1.9892782861353457
4.625770961826971, 1.4352964866631688
4.627437906317719, 1.7993463776970327
4.629104850808468, -1.3297087182014584
4.630771795299216, -3.3975018787555213
4.632438739789965, -2.2081723661286334
4.634105684280713, 2.4531744357046916
4.635772628771462, 3.7687167748404633
4.63743957326221, 4.356280125016898
4.639106517752959, 1.60290601933308
4.640773462243707, 0.2816919525543795
4.642440406734456, -0.669799043565338
4.644107351225204, -2.82887122489395
4.6457742957159525, 1.0072532168565016
4.6474412402067005, 1.9566494835329002
4.649108184697449, -1.3092251834800432
4.650775129188198, -1.4174628336981019
4.652442073678946, -4.582672402942504
4.654109018169695, -3.9761238305044935
4.655775962660443, 3.187890815477438
4.657442907151192, 1.2992306876259998
4.65910985164194, -1.0401666536299765
4.660776796132689, -2.526820471254971
4.662443740623437, -0.34792484851086736
4.664110685114186, 2.643167789897201
4.665777629604934, -3.8341486128171187
4.667444574095683, -0.08628739589740753
4.669111518586431, 7.412168807771277
4.67077846307718, 1.370907330900506
4.672445407567928, -6.6674165999116415
4.6741123520586765, -3.932600295788812
4.6757792965494245, 5.908677657967864
4.677446241040173, 10.01702535499966
4.679113185530921, 3.16464062689985
4.68078013002167, -0.8062745789436048
4.682447074512418, 3.1676088249057326
4.684114019003167, -4.468787385262057
4.685780963493915, -5.971311826480288
4.687447907984664, -0.07920822527583443
4.689114852475412, -4.094048710196964
4.690781796966161, 3.209313973469457
4.692448741456909, 7.001955876618561
4.694115685947658, -8.789665500144462
4.695782630438406, -26.460511217549378
4.697449574929155, 6.742976257771723
4.699116519419903, 38.707952940853296
4.700783463910652, -1.3049077178512265
4.7024504084014, -20.403456315899277
4.7041173528921485, -18.917633955323854
4.7057842973828965, -18.849146171316924
4.707451241873645, 18.066545387789695
4.709118186364394, 26.17918323267708
4.710785130855142, -2.0742511669105967
4.712452075345891, -15.604152504118497
4.714119019836639, -16.999355809622827
4.715785964327388, 27.480538505196442
4.717452908818136, 35.624910016974916
4.719119853308885, -14.842221787862742
4.720786797799633, -10.965474036825068
4.722453742290382, -9.710926427510472
4.72412068678113, -9.714515295577318
4.725787631271879, 8.929108952854044
4.727454575762627, 7.232917368442793
4.729121520253376, 13.30854259030906
4.730788464744124, 3.579250045300644
4.7324554092348725, -16.23318623841576
4.7341223537256205, -13.05102587842201
4.735789298216369, 4.677817325357603
4.737456242707117, 16.962229289871143
4.739123187197866, -19.625368528320774
4.740790131688614, -5.681209619784887
4.742457076179363, 28.054771881083475
4.744124020670111, -14.096424040103766
4.74579096516086, -4.324338994318277
4.747457909651608, 8.874824425291452
4.749124854142357, -1.0937961046367217
4.750791798633105, 1.656963857795802
4.752458743123854, 1.199912388813645
4.754125687614602, -3.190770832463886
4.755792632105351, -7.030330173123956
4.757459576596099, 17.834140603131377
4.759126521086848, 4.773169708808688
4.760793465577596, -15.977708584763135
4.7624604100683445, -5.575437859655633
4.7641273545590925, -4.605665028008662
4.765794299049841, -13.99923729417933
4.767461243540589, 2.7412721084948823
4.769128188031338, 8.767383014721727
4.770795132522087, -10.279852102053397
4.772462077012835, 19.07611795696581
4.774129021503584, 15.950561415281678
4.775795965994332, -7.71267709242157
4.777462910485081, -7.936185054512327
4.779129854975829, -19.24827861923971
4.780796799466578, 9.696303739105993
4.782463743957326, 25.827340532694144
4.784130688448075, -9.520467630309419
4.785797632938823, -28.133442581643536
4.787464577429572, 15.084003854246923
4.78913152192032, 25.140314217260787
4.7907984664110685, -12.680329085807552
4.7924654109018165, -7.276185906477259
4.794132355392565, 4.248772285367913
4.795799299883313, -9.598582277555145
4.797466244374062, -15.754928463983052
4.79913318886481, 31.65845806956719
4.800800133355559, -4.060992918189456
4.802467077846307, -22.197026024645496
4.804134022337056, 41.03342070608758
4.805800966827804, -11.804860576304332
4.807467911318553, -26.942369943066595
4.809134855809301, 1.470897304218289
4.81080180030005, 3.2035914300333097
4.812468744790798, 6.618619083665214
4.814135689281547, 6.342844316201022
4.815802633772295, 11.88156433871467
4.817469578263044, -11.824204876790354
4.819136522753792, -4.410411050249183
4.820803467244541, 8.388265690309296
4.822470411735289, -1.9645659144403367
4.8241373562260375, -5.269466562617957
4.8258043007167855, 4.440573944702575
4.827471245207534, 9.01368370038648
4.829138189698283, -14.017399749290124
4.830805134189031, -10.92673520678489
4.83247207867978, -3.174934548130816
4.834139023170528, -2.243754926788929
4.835805967661277, 0.10640746530677347
4.837472912152025, 6.9550605893383874
4.839139856642774, 16.887701023042688
4.840806801133522, -8.33475299149293
4.842473745624271, -9.897793617562684
4.844140690115019, -2.98692212817321
4.845807634605768, -3.4406220123413895
4.847474579096516, 3.213974371475331
4.849141523587265, 6.019109781134966
4.850808468078013, 15.475042247916265
4.8524754125687615, 0.29543452083451616
4.8541423570595095, -1.0981644319033057
4.855809301550258, 0.32356024730992583
4.857476246041006, -2.532387786947506
4.859143190531755, 7.151838245961598
4.860810135022503, -0.9433892135717659
4.862477079513252, -2.1246633109445243
4.864144024004, 1.5416696624632251
4.865810968494749, 1.5632347727426528
4.867477912985497, -0.15577565969014337
4.869144857476246, -1.7796251216012913
4.870811801966994, 0.9540120481108152
4.872478746457743, -0.21238907532122075
4.874145690948491, -2.082925888544854
4.87581263543924, -1.8347863240192592
4.877479579929988, -2.1910806453868736
4.879146524420737, 0.24472183107482925
4.880813468911485, -1.2966376582887063
4.8824804134022335, -4.057802627745154
4.8841473578929815, -1.358141086645201
4.88581430238373, -1.7721247579259496
4.887481246874479, -1.3899206067892718
4.889148191365227, -2.8571363034732338
4.890815135855976, 0.5325705669937186
4.892482080346724, 3.792623034804292
4.894149024837473, 1.2923886193763066
4.895815969328221, -1.684062448002165
4.89748291381897, -3.2296675370461863
4.899149858309718, 0.841078717556194
4.900816802800467, -0.1125353580019206
4.902483747291215, -1.5522396455040814
4.904150691781964, 1.632880351838121
4.905817636272712, 5.150068691944476
4.907484580763461, 1.066325760186893
4.909151525254209, -2.094637067438296
4.9108184697449575, -1.7038747831437009
4.9124854142357055, -0.3558842565833761
4.914152358726454, 2.441424027598017
4.915819303217202, -0.6915594398586824
4.917486247707951, 1.5938862205676496
4.919153192198699, 0.8824335904583492
4.920820136689448, -2.2043026628866995
4.922487081180196, 0.4002948922172118
4.924154025670945, 1.0424979299286945
4.925820970161693, -1.0691524677755577
4.927487914652442, -0.6945018446099903
4.92915485914319, 2.5496037002959477
4.930821803633939, -0.44085096412654556
4.932488748124687, -1.6881906124276271
4.934155692615436, 2.8030331689140855
4.935822637106184, 1.2349326446395588
4.937489581596933, -0.9273683233841487
4.939156526087681, 1.29309222937896
4.9408234705784295, -0.5613832979949809
4.9424904150691775, 0.4229544603185702
4.944157359559926, 0.9946516425950147
4.945824304050675, -0.45787886696825353
4.947491248541423, -3.1674206552085544
4.949158193032172, -0.4207775368869061
4.95082513752292, 7.009721366886918
4.952492082013669, -1.4940446651729404
4.954159026504417, -2.477378594108745
4.955825970995166, 0.35404737609749626
4.957492915485914, -3.6963350286600507
4.959159859976663, 0.20523793684687963
4.960826804467411, 1.2442393314326112
4.96249374895816, 0.16053950999915156
4.964160693448908, 1.229574343129727
4.965827637939657, 1.3078645975544168
4.967494582430405, 0.1673069427700964
4.9691615269211535, 0.7006973342005023
4.9708284714119015, 4.0036404929470635
4.97249541590265, 1.3486007373156703
4.974162360393398, -5.270901303605261
4.975829304884147, -3.782953838536332
4.977496249374895, -2.6246158695838786
4.979163193865644, 0.23641493231842148
4.980830138356392, 7.002558647002406
4.982497082847141, 4.320490545946552
4.984164027337889, -0.3218162420297541
4.985830971828638, -0.6102763667833634
4.987497916319386, -2.544255195490801
4.989164860810135, -3.609028009369702
4.990831805300883, -3.6406594306692295
4.992498749791632, -3.6907776465638475
4.99416569428238, 1.3767893678966137
4.995832638773129, 3.169998626404605
4.997499583263877, 2.4627736674503447
4.9991665277546256, 0.03020969385160538
5.000833472245374, -4.446271262913129
5.0025004167361224, -3.042111267079751
5.004167361226871, -2.40941770349108
5.005834305717619, -1.9918355091966995
5.007501250208368, 3.539909152638104
5.009168194699116, 4.204902052116178
5.010835139189865, -3.5939074242641436
5.012502083680613, -5.467430966796789
5.014169028171362, -2.76743583355223
5.01583597266211, -0.061164978976162576
5.017502917152859, 4.092413612062339
5.019169861643607, 3.3469816189342017
5.020836806134356, 3.070776359574225
5.022503750625104, 2.674163071147234
5.024170695115853, -3.755891742743392
5.025837639606601, -2.1489085831600034
5.02750458409735, -1.3410527690975345
5.029171528588098, 0.8428421827469486
5.0308384730788465, 8.310081135550185
5.0325054175695945, 1.6686401881678277
5.034172362060343, 5.125373552182587
5.035839306551091, 6.407869347537772
5.03750625104184, 0.9731892188701878
5.039173195532588, 8.178571016367158
5.040840140023337, -2.3018862464715326
5.042507084514085, -15.905507627240791
5.044174029004834, -4.8320481047625945
5.045840973495582, 8.223169932663662
5.047507917986331, 9.31130448942586
5.049174862477079, -5.441886264650589
5.050841806967828, -1.8589973056117968
5.052508751458576, 20.00495564958209
5.054175695949325, 1.7618010138136153
5.055842640440073, -6.610408329569243
5.057509584930822, -7.653575701310004
5.05917652942157, -16.492755893644052
5.0608434739123185, -6.933635808505047
5.062510418403067, -7.789615326983283
5.064177362893815, 0.0007182681803117319
5.065844307384564, 10.492003233589651
5.067511251875312, 1.0770503789800978
5.069178196366061, -16.487409319471187
5.070845140856809, -3.918129250676377
5.072512085347558, 4.5524836895293035
5.074179029838306, -5.25966897875991
5.075845974329055, -8.094820481557571
5.077512918819803, 4.837410836571564
5.079179863310552, 25.750601820872212
5.0808468078013, -7.66868074787104
5.082513752292049, -15.934481718543855
5.084180696782797, 18.40108936453483
5.085847641273546, 3.6205358602974975
5.087514585764294, -19.601479484730287
5.0891815302550425, 20.06782832404884
5.0908484747457905, 26.726134618511708
5.092515419236539, -13.920155759491589
5.094182363727287, -6.309860547805563
5.095849308218036, -3.513206656363918
5.097516252708784, 3.3838573094069537
5.099183197199533, 0.35384378075409595
5.100850141690281, -3.340453619954347
5.10251708618103, 12.95362600481991
5.104184030671778, -6.794882818562229
5.105850975162527, -10.346604483974888
5.107517919653275, 12.674271178630729
5.109184864144024, 11.785722140066602
5.110851808634772, -1.1974007318674629
5.112518753125521, -19.446902432617385
5.114185697616269, -11.517674317911341
5.115852642107018, 22.974708977083058
5.117519586597766, 10.795109970004127
5.1191865310885145, -8.1204805358981
5.120853475579263, -19.01066548882593
5.122520420070011, -3.0348185845070086
5.12418736456076, 17.386508857510727
5.125854309051508, -11.079019257245395
5.127521253542257, -15.75534330324648
5.129188198033005, -17.440522950672058
5.130855142523754, -2.3470443441808335
5.132522087014502, 12.879431539920862
5.134189031505251, 6.519196034965736
5.135855975995999, 24.030219447525234
5.137522920486748, 6.640695535240723
5.139189864977496, -9.777363745323141
5.140856809468245, -1.207191496676777
5.142523753958993, -5.347157383692489
5.144190698449742, 7.7872554917771035
5.14585764294049, -7.543052539937767
5.1475245874312385, -6.487377616312681
5.1491915319219865, 15.667245497250263
5.150858476412735, -9.017281269581112
5.152525420903483, 6.166850555777589
5.154192365394232, -5.635808164942043
5.15585930988498, -9.301955105406469
5.157526254375729, 29.920852715323743
5.159193198866477, 6.966944603020844
5.160860143357226, -16.124252199675922
5.162527087847974, -22.209617775019375
5.164194032338723, 8.287855862973283
5.165860976829471, 7.171535226562699
5.16752792132022, -10.958466841517584
5.169194865810968, 14.247229852692932
